<Actel_Data_File>
    <format name="NVM File" version="01.00.00"/>
    <header>
        <die>
            M2GL025
        </die>
        <family>
            IGLOO2
        </family>
        <module>
            
        </module>
        <package>
            256 VF
        </package>
        <version>
            11.8.1.12
        </version>
    </header>
    <nvm>
        <region name="RISCV_BOOT" address="0x000000" retrieveAddressFromFile="false" size="38488" format="HEX" type="Data Storage" wordSize="8" numberWords="38488" memFile="C:\Users\ciaran.lappin\Downloads\CreativeRes\M2GL025-Creative-Board-master\Modify_The_FPGA_Design\IGL2_CoreRISCV_AXI4_TickTacToe\ihx\TickTackToe.hex" memType="INTELHEX" memFileTimeStamp="" clientType="public" program="true">
            6f00c0006f0000006f004003970200009382020373905230735000307350
            30307350203073504030970100209381817d17110020130101d46f00c04a
            130101f823221100232421002326310023284100232a5100232c6100232e
            710023208102232291022324a1022326b1022328c102232ad102232ce102
            232ef1022320010523221105232421052326310523284105232a5105232c
            6105232e710523208107232291072324a1072326b1072328c107232ad107
            232ce107232ef10773252034f325103413060100ef00c06b73101534b722
            00009382028073a0023083204100032181008321c1000322010183224101
            032381018323c1010324010283244102032581028325c102032601038326
            4103032781038327c1030328010483284104032981048329c104032a0105
            832a4105032b8105832bc105032c0106832c4106032d8106832dc106032e
            0107832e4107032f8107832fc1071301010873002030130101ff93050000
            232481002326110013040500ef004019b707008003a5c7008327c5036384
            0700e780070013050400ef0050021308f00013070500637ec8029377f700
            6390070a63920508937606ff1376f600b386e6002320b7002322b7002324
            b7002326b70013070701e366d7fe6314060067800000b306c84093962600
            97020000b38656006780c6002307b700a306b7002306b700a305b7002305
            b700a304b7002304b700a303b7002303b700a302b7002302b700a301b700
            2301b700a300b7002300b7006780000093f5f50f93968500b3e5d5009396
            0501b3e5d5006ff0dff69396270097020000b386560093820000e78006fa
            93800200938707ff3307f7403306f600e378c8f66ff0dff3137735009307
            050093060500631c070437867f7f1306f6f79305f0ff9386460003a7c6ff
            b377c700b387c7003367c700b3e7e700e384b7fe03c7c6ffb387a64003c6
            d6ff03c5e6ff63000704630a06023335a0003305f5001305e5ff67800000
            6388060203c707009387170093f63700e31807feb387a7401385f7ff6780
            00001385d7ff678000001385c7ff67800000938607006ff0dff7130101fd
            b7070080232c410103aac700232e31012320210383298a14232a51012328
            61012326710123261102232481022322910223248101130b050013890500
            930a1000930bf0ff6388090283a449001384f4ff6342040293942400b384
            99006304090483a744106300f9041304f4ff9384c4ffe31674ff8320c102
            0324810283244102032901028329c101032a8101832a4101032b0101832b
            c100032c8100130101036780000083a7490003a744009387f7ff6302f406
            23a20400e30807fa83a78918b3968a0003ac4900b3f7f600638a070283a7
            c918b3f6f6006392060483a5440813050b00e700070083a7490063908703
            83278a14e38a37f7938907006ff09ff4e700070083a74900e38487ff8329
            8a146ff05ff323a289006ff01ffa03a54408e70007006ff05ffc130101fe
            232e8100130401022326a4fe2324b4fe2322c4fe6f00c0028327c4fe03a7
            0700832784fe23a0e7008327c4fe938747002326f4fe832784fe93874700
            2324f4fe032784fe832744fee3f8e7fc130000000324c101130101026780
            0000130101fd2326810213040103232ea4fc232cb4fc8327c4fd2326f4fe
            6f0080018327c4fe23a007008327c4fe938747002326f4fe0327c4fe8327
            84fde3f2e7fe130000000324c1021301010367800000130101fe232e1100
            232c810013040102b707008013864701b707008093850700b79700601385
            0721eff09ff2138681c4b707008093850702b797006013850723eff01ff1
            938551c5138581c4eff05ff6938501c8138501c8eff09ff5930610001306
            c002b7150070138541c8ef009069b79700609387471d2326f4fe8327c4fe
            2320f4fe232204fe232404fe930704fe9385070013051000ef80902f9307
            050013850700eff09fbd130101fe232e810013040102b717000093870780
            f3b747302326f4fef37704302324f4fe130000000324c101130101026780
            0000130101fe232e810013040102b717000093870780f3a747302326f4fe
            f36704302324f4fe130000000324c1011301010267800000130101fd2326
            11022324810213040103232ea4fc930710002326f4fe0327c4fd93074006
            b357f702138607009306000023a4c1c423a6d1c403a681c483a6c1c49307
            0600b3e7d70063820708f32740f12324f4fe832784fe2322f4fe37070044
            b7060044b7c70000b387f60003a887ff83a8c7ff03a581c483a5c1c43306
            a800b3370601b386b800b387d700938607001305060093850600832644fe
            b717000093870780b387f60093973700b307f70023a0a70023a2b7009307
            0008f3a747302320f4feeff09ff0232604fe8327c4fe138507008320c102
            032481021301010367800000130101fe232e1100232c810013040102f327
            40f12326f4fe8327c4fe2324f4fe93070008f3b747302322f4fe37070044
            b7060044b7c70000b387f60003a887ff83a8c7ff03a581c483a5c1c43306
            a800b3370601b386b800b387d700938607001305060093850600832684fe
            b717000093870780b387f60093973700b307f70023a0a70023a2b700ef00
            c00f93070008f3a747302320f4fe130000008320c1010324810113010102
            67800000130101fe232e1100232c8100130401022326a4fe2324b4fe8327
            c4fe63d207020327c4feb707008093c7f7ff3377f7009307b0006316f700
            ef00c0066f0000058327c4fe63d207020327c4feb707008093c7f7ff3377
            f700930770006316f700eff05fef6f00800213065000b79700609385c71d
            13051000ef0080698327c4fe9387170013850700ef00801a832784fe1385
            07008320c101032481011301010267800000130101ff2326110023248100
            130401011305a000ef008017130101ff2326810013040101130000000324
            c1001301010167800000130101fe232e1100232c81001304010283c741c5
            138717009376f70f238ad1c4130710036376f702138581d0ef3040462326
            a4fe8327c4fe93c727002326f4fe8325c4fe138581d0ef304018238a01c4
            83a7c1d51387a70023aee1d403a7c1d59307900063e4e70023ae01d41300
            00008320c101032481011301010267800000130101fd2326110223248102
            13040103232ea4fc232cb4fc13062000b79700609385471e0325c4fdef00
            005993078000a307f4fe6f0080088347f4fe9387f7ff2307f4fe8347e4fe
            939727001307f000b317f70013870700832784fd3377f7008347e4fe9397
            2700b357f700a306f4fe0347d4fe9307900063eae7008347d4fe93870703
            93f7f70f6f0000018347d4fe9387770393f7f70f2306f4fe9307c4fe1306
            1000938507000325c4fdef00c0508347f4fe9387f7ffa307f4fe8347f4fe
            e39c07f6130000008320c102032481021301010367800000130101fd2326
            11022324810213040103232ea4fcb79700609387871e2326f4fe0325c4fe
            eff09f8993070500138607008325c4fe13052000ef00804a8327c4fd9385
            070013052000eff01fee6f000000130101fe232e8100130401022326a4fe
            b707008003a787008327c4fe3307f700938741d6636ef700b707008003a7
            87008327c4fe3307f7009387011763f6e7009307f0ff6f000003b7070080
            03a787008327c4fe3307f700b707008023a4e700b707008003a787008327
            c4feb307f040b307f700138507000324c1011301010267800000130101fe
            232e8100130401022326a4fe0327c4fe23a0e1c89307f0ff138507000324
            c1011301010267800000130101fe232e1100232c8100130401022326a4fe
            2324b4fe2322c4fe13052000eff05ffb93070500138507008320c1010324
            81011301010267800000130101fe232e1100232c8100130401022326a4fe
            2324b4fe2322c4fe2320d4fe13052000eff05ff793070500138507008320
            c101032481011301010267800000130101fe232e1100232c810013040102
            2326a4fe13059000eff01ff493070500138507008320c101032481011301
            010267800000130101fe232e1100232c8100130401022326a4fe2324b4fe
            2322c4fe1305c000eff05ff093070500138507008320c101032481011301
            010267800000130101ff2326110023248100130401011305b000eff05fed
            93070500138507008320c100032481001301010167800000130101fe232e
            1100232c8100130401022326a4fe2324b4fe0325c4feef00000693070500
            638c0700832784fe3727000023a8e700930700006f00000113059000eff0
            9fe793070500138507008320c101032481011301010267800000130101ff
            232681001304010193071000138507000324c10013010101678000001301
            01fe232e8100130401022326a4fe0327c4fe930710006308f7000327c4fe
            930720006316f700930710006f0000011307900023a0e1c8930700001385
            07000324c1011301010267800000130101fe232e1100232c810013040102
            2326a4fe2324b4fe13056001eff05fdd93070500138507008320c1010324
            81011301010267800000130101fe232e1100232c8100130401022326a4fe
            2324b4fe1305f001eff0dfd993070500138507008320c101032481011301
            010267800000130101fe232e1100232c8100130401022326a4fe2324b4fe
            2322c4fe0325c4feeff05ff29307050063860700930700006f0000011305
            9000eff09fd493070500138507008320c101032481011301010267800000
            130101fe232e1100232c8100130401022326a4fe2324b4fe2322c4fe0325
            c4feeff01fed93070500638e0700032644fe832584fe138541c8ef001010
            930705006f00000113059000eff05fce93070500138507008320c1010324
            81011301010267800000130101fe232e1100232c8100130401022326a4fe
            2324b4fe1305d000eff0dfca93070500138507008320c101032481011301
            010267800000130101fe232e1100232c8100130401022326a4fe1305d000
            eff09fc793070500138507008320c1010324810113010102678000001301
            01fe232e1100232c8100130401022326a4fe13052000eff05fc493070500
            138507008320c101032481011301010267800000130101fe232e1100232c
            8100130401022326a4fe1305a000eff01fc193070500138507008320c101
            032481011301010267800000130101fd232611022324810213040103232e
            a4fc232cb4fc232ac4fc832784fd2324f4fe0325c4fdeff01fd993070500
            638a0706232604fe6f008005032784fe8327c4feb307f700130610009385
            0700138541c8ef00c061032784fe8327c4feb307f70003c707009307a000
            631cf70013061000b797006093858720138541c8ef00005f8327c4fe9387
            17002326f4fe0327c4fe832744fde362f7fa832744fd6f00000113059000
            eff0dfb493070500138507008320c1020324810213010103678000001301
            01ff232611002324810013040101eff08fe5130000008320c10003248100
            1301010167800000130101fe232e1100232c810013040102f32700302326
            f4fe8327c4fe2324f4feeff0cfde832784fe138507008320c10103248101
            1301010267800000130101fe232e8100130401022326a4fe8327c4fe7390
            0730130000000324c1011301010267800000130101fd2326810213040103
            232ea4fc232cb4fc8327c4fd2326f4fe8327c4fe032784fd23a0e7001300
            00000324c1021301010367800000130101fd2326810213040103232ea4fc
            8327c4fd2326f4fe8327c4fe83a70700138507000324c102130101036780
            0000130101fd2326810213040103232ea4fc232cb4fc232ac4fc2328d4fc
            8327c4fd2326f4fe8327c4fe83a707002324f4fe032704fd832784fdb317
            f7002322f4fe032744fe832744fd3377f700832744fd93c6f7ff832784fe
            b3f7f6003367f7008327c4fe23a0e700130000000324c102130101036780
            0000130101fd2326810213040103232ea4fc232cb4fc232ac4fc8327c4fd
            2326f4fe8327c4fe03a70700832744fd3377f700832784fdb357f7002324
            f4fe832784fe138507000324c1021301010367800000130101fd23268102
            13040103232ea4fc232cb4fc8327c4fd2326f4fe832784fd139707011357
            07018327c4fe2390e700130000000324c1021301010367800000130101fd
            2326810213040103232ea4fc8327c4fd2326f4fe8327c4fe83d707009397
            070193d70701138507000324c1021301010367800000130101fd23268102
            13040103232ea4fc232cb4fc232ac4fc2328d4fc8327c4fd2326f4fe8327
            c4fe83d707002315f4fe032704fd832784fdb317f7002314f4fe832744fd
            1397070113570701835784feb377f7001397070113570701832744fd9397
            070193d7070193c7f7ff9396070193d606018357a4feb3f7f60093970701
            93d70701b367f70013970701135707018327c4fe2390e700130000000324
            c1021301010367800000130101fd2326810213040103232ea4fc232cb4fc
            232ac4fc8327c4fd2326f4fe8327c4fe83d707009397070193d707011387
            0700832744fd3377f700832784fdb357f7002315f4fe8357a4fe13850700
            0324c1021301010367800000130101fd2326810213040103232ea4fc232c
            b4fc8327c4fd2326f4fe832784fd13f7f70f8327c4fe2380e70013000000
            0324c1021301010367800000130101fd2326810213040103232ea4fc8327
            c4fd2326f4fe8327c4fe83c7070093f7f70f138507000324c10213010103
            67800000130101fd2326810213040103232ea4fc232cb4fc232ac4fc2328
            d4fc8327c4fd2326f4fe8327c4fe83c70700a305f4fe032704fd832784fd
            b317f7002305f4fe832744fd13f7f70f8347a4feb377f70013f7f70f8327
            44fd93f7f70f93c7f7ff93f6f70f8347b4feb3f7f60093f7f70fb367f700
            13f7f70f8327c4fe2380e700130000000324c10213010103678000001301
            01fd2326810213040103232ea4fc232cb4fc232ac4fc8327c4fd2326f4fe
            8327c4fe83c7070093f7f70f13870700832744fd3377f700832784fdb357
            f700a305f4fe8347b4fe138507000324c1021301010367800000130101fd
            232611022324810213040103232ea4fc232cb4fc1307060093870600231b
            e4fca30af4fc8327c4fd638e070c034754fd9307700063e8e70c035764fd
            b72700006372f70c832784fd13878700835764fd93f7f70f938507001305
            0700eff09fe4832784fd9386c700034754fd835764fd93d7574093f7877f
            b367f7009385070013850600eff01fe28327c4fd032784fd23a0e7008327
            c4fd83a707009387070113850700eff0dfe39307050093f72700a307f4fe
            6f0000048327c4fd83a707009387470013850700eff09fe1930705002307
            f4fe8327c4fd83a707009387070113850700eff0dfdf9307050093f72700
            a307f4fe8347f4fee39007fc8327c4fd23820700130000008320c1020324
            81021301010367800000130101fd232611022324810213040103232ea4fc
            232cb4fc232ac4fc8327c4fd63800708832784fd638c0706832744fd6388
            0706232604fe6f00c0058327c4fd83a707009387070113850700eff0dfd7
            9307050093f71700a305f4fe8347b4fee38e07fc8327c4fd83a607000327
            84fd8327c4feb307f70083c707009385070013850600eff09fd08327c4fe
            938717002326f4fe0327c4fe832744fde360f7fa130000008320c1020324
            81021301010367800000130101fd232611022324810213040103232ea4fc
            232cb4fc232ac4fc232604fe8327c4fd6380070a832784fd638c07088327
            44fd638807088327c4fd83a707009387070113850700eff0dfcc93070500
            93f71700a305f4fe8347b4fe638407068327c4fd83a60700032784fd8327
            c4feb307f70083c707009385070013850600eff09fc58327c4fe93871700
            2326f4fe8327c4fd83a707009387070113850700eff05fc79307050093f7
            1700a305f4fe8347b4fe638807000327c4fe832744fde360f7fa8327c4fe
            138507008320c102032481021301010367800000130101fd232611022324
            81022322910213040103232ea4fc232cb4fc232ac4fc232404fe8327c4fd
            6386070e832784fd6382070e832744fd638e070c232404fe8327c4fd83a7
            07009387070113850700eff09fbe93070500a303f4fe8327c4fd03c74700
            834774feb367f70013f7f70f8327c4fd2382e700834774fe93f72700a307
            f4fe6f00c007032784fd832784feb304f7008327c4fd83a7070093874700
            13850700eff05fb9930705002380f400832784fe938717002324f4fe8327
            c4fd83a707009387070113850700eff0dfb693070500a303f4fe8327c4fd
            03c74700834774feb367f70013f7f70f8327c4fd2382e700834774fe93f7
            2700a307f4fe8347f4fe63880700032784fe832744fde36cf7f6832784fe
            138507008320c10203248102832441021301010367800000130101fd2326
            11022324810213040103232ea4fc232cb4fc8327c4fd63800708832784fd
            638c0706232604fe6f00c0058327c4fd83a707009387070113850700eff0
            9fac9307050093f71700a305f4fe8347b4fee38e07fc8327c4fd83a60700
            032784fd8327c4feb307f70083c707009385070013850600eff05fa58327
            c4fe938717002326f4fe032784fd8327c4feb307f70083c70700e39c07f8
            130000008320c102032481021301010367800000130101fd232681021304
            0103232ea4fc9307f0ffa307f4fe8327c4fd638207028327c4fd83c74700
            93d7274093f7f70f93f77700a307f4fe8327c4fd238207008347f4fe1385
            07000324c1021301010367800000130101fd232611022324810213040103
            2326a4fe2324b4fe930706002320d4fe232ee4fca303f4fe8327c4fe0327
            84fe23a0e700832784fe9387870093060000130620009305100013850700
            eff08ff3832784fe9387870093060000130610009305000013850700eff0
            cff1832784fe938707019305100013850700eff00fea832784fe9387c700
            832504fe13850700eff0cfe88325c4fd032584feeff00fe8834774fe6392
            0702832784fe9387870093060000130640009305200013850700eff04fec
            6f000002832784fe9387870093061000130640009305200013850700eff0
            4fea130000008320c102032481021301010367800000130101fe232e1100
            232c8100130401022326a4fe8327c4fe83a7070093878700930610001306
            10009305000013850700eff0cfe5130000008320c1010324810113010102
            67800000130101fe232e1100232c8100130401022326a4fe8327c4fe83a7
            07009387870093060000130610009305000013850700eff04fe113000000
            8320c101032481011301010267800000130101fe232e1100232c81001304
            01022326a4fe8327c4fe83a7070093878700930610001306200093051000
            13850700eff0cfdc130000008320c1010324810113010102678000001301
            01fe232e1100232c8100130401022326a4fe8327c4fe83a7070093870701
            9305100013850700eff04fd2130000008320c10103248101130101026780
            0000130101fd232611022324810213040103232ea4fc232604fe8327c4fd
            83a707009387470013850700eff0cfd12326a4fe8327c4fe138507008320
            c102032481021301010367800000130101fe232e1100232c810013040102
            2326a4fe2324b4fe8327c4fe83a70700832584fe13850700eff0cfc91300
            00008320c101032481011301010267800000130101fd2326110223248102
            13040103232ea4fc232cb4fc93070600231bf4fc8327c4fd6384070e8327
            84fd6380070e1306c004930500000325c4fdefe08fdf8327c4fd032784fd
            23a0e700035764fd9307000263eee700835764fd638a07008327c4fd0357
            64fd2392e7046f0000018327c4fd130710002392e7048327c4fd83a70700
            93060000130610009305000013850700eff0cff08327c4fd83a707009387
            47029305000013850700eff04fe88327c4fd83a707009387c70193053000
            13850700eff0cfe68327c4fd83a70700938747009305f00f13850700eff0
            4fe58327c4fd83a70700938787019305000013850700eff0cfe38327c4fd
            83a707009305300013850700eff08fe28327c4fd83a70700938747029305
            100013850700eff00fe18327c4fd83a707009387470213850700eff08fe3
            93070500a307f4fe8327c4fd83a707009387070213850700eff0cfe19307
            0500a307f4fe130000008320c102032481021301010367800000130101fe
            232e1100232c8100130401022326a4fe8327c4fe638207088327c4fe23a4
            07048327c4fe83a7070093060000130610009305000013850700eff04fdf
            8327c4fe83a707009387c7019305300013850700eff0cfd68327c4fe83a7
            0700938747009305f00f13850700eff04fd58327c4fe83a7070093878701
            9305000013850700eff0cfd38327c4fe83a707009305100013850700eff0
            8fd2130000008320c101032481011301010267800000130101fe232e1100
            232c8100130401022326a4fe8327c4fe638207088327c4fe83a707009306
            0000130610009305000013850700eff0cfd48327c4fe23a407048327c4fe
            83a707009387c7019305300013850700eff0cfcb8327c4fe83a707009387
            47009305f00f13850700eff04fca8327c4fe83a707009387870193050000
            13850700eff0cfc88327c4fe83a707009305300013850700eff08fc71300
            00008320c101032481011301010267800000130101fd2326110223248102
            13040103232ea4fc232cb4fc232604fe8327c4fd6386070a032784fd9307
            700063e0e70a8327c4fd83a70700130620009305100013850700eff0cfd1
            93070500638007088327c4fd83a707009387070213060001930540001385
            0700eff08fcf9307050013870700930710006316f7000325c4fdef10d010
            8327c4fd83a707009387470213850700eff08fc093070500938607001307
            1000832784fdb317f700b3e7f6002326f4fe8327c4fd83a7070093874702
            8325c4fe13850700eff08fb9130000008320c10203248102130101036780
            0000130101fd232611022324810213040103232ea4fc232cb4fc232604fe
            8327c4fd6388070a032784fd9307700063e2e70a8327c4fd83a707001306
            20009305100013850700eff0cfc393070500638207088327c4fd83a70700
            93870702130600019305400013850700eff08fc193070500138707009307
            10006316f7000325c4fdef10d0028327c4fd83a707009387470213850700
            eff08fb2930705009386070013071000832784fdb317f70093c7f7ffb3f7
            f6002326f4fe8327c4fd83a70700938747028325c4fe13850700eff04fab
            130000008320c102032481021301010367800000130101fd232611022324
            810213040103232ea4fc232cb4fc232604fe8327c4fd6380070a8327c4fd
            83a70700130620009305100013850700eff04fb693070500638007088327
            c4fd83a707009387c7019305300013850700eff04fa48327c4fd83a70700
            93878702832584fd13850700efe01ff8130000008327c4fd83a707009387
            0702130620009305100013850700eff0cfb0930705001387070093071000
            e31cf7fc8327c4fd83a707009387870013850700efe05ff7930705002326
            f4fe8327c4fe138507008320c102032481021301010367800000130101fd
            23261102232481022322910213040103232ea4fc232cb4fc2328d4fc9307
            0700231bc4fc231af4fc232204fe231704fe231604fe231504fe231404fe
            8327c4fd638607568327c4fd83a70700130620009305100013850700eff0
            8fa69307050063860754035764fd835744fdb307f700638e0752035764fd
            835744fdb307f7009387f7ff2322f4fe8327c4fd83a707009387c7019305
            300013850700eff04f928327c4fd83a70700938707021306000193054000
            13850700eff08fa09307050013870700930710006316f7000325c4fdef10
            c0618327c4fd83a7070093060000130610009305000013850700eff04f94
            6f00c0060357c4fe835764fd6378f7028327c4fd83a707009386c7008357
            c4fe032784fdb307f70083c707009385070013850600efe01fdf6f00c001
            8327c4fd83a707009387c7009305000013850700efe05fdd835784fe9387
            17002314f4fe8357c4fe938717002316f4fe0357c4fe832744fe637af700
            8327c4fd83d747040357c4fee360f7f80357c4fe832744fe631ef7068327
            c4fd83d747040357c4fe6376f7060357c4fe835764fd6378f7028327c4fd
            83a70700938687028357c4fe032784fdb307f70083c70700938507001385
            0600efe01fd56f00c0018327c4fd83a70700938787029305000013850700
            efe05fd3835784fe938717002314f4fe8357c4fe938717002316f4fe8327
            c4fd83a7070093061000130610009305000013850700eff0cf816f00c00d
            8327c4fd83d74704035784fe637ef7060357c4fe832744fe6318f7028327
            c4fd83a70700938687028357c4fe032784fdb307f70083c7070093850700
            13850600efe09fcb6f00c0028327c4fd83a707009386c7008357c4fe0327
            84fdb307f70083c707009385070013850600efe0dfc88357c4fe93871700
            2316f4fe835784fe938717002314f4fe8327c4fd83a70700938707021306
            40009305200013850700eff04f8093070500639807028327c4fd83a70700
            9387870013850700efe05fc78357e4fe938717002317f4fe835784fe9387
            f7ff2314f4fe0357c4fe835764fde360f7f26f00000a8327c4fd83d74704
            035784fe6370f7040357c4fe832744fe637af7028327c4fd83a707009387
            c7009305000013850700efe01fbe8357c4fe938717002316f4fe835784fe
            938717002314f4fe8327c4fd83a707009387070213064000930520001385
            0700efe09ff593070500639807028327c4fd83a707009387870013850700
            efe09fbc8357e4fe938717002317f4fe835784fe9387f7ff2314f4fe0357
            e4fe835764fde36ef7f46f00800b8327c4fd83d74704035784fe637af702
            8327c4fd83a707009387c7009305000013850700efe01fb48357c4fe9387
            17002316f4fe835784fe938717002314f4fe8327c4fd83a7070093870702
            130640009305200013850700efe09feb93070500639a07048357a4fe0327
            04fdb304f7008327c4fd83a707009387870013850700efe0dfb193070500
            93f7f70f2380f4008357a4fe938717002315f4fe8357e4fe938717002317
            f4fe835784fe9387f7ff2314f4fe0357c4fe832744fee362f7f46f00800b
            8327c4fd83d74704035784fe637af7028327c4fd83a70700938787029305
            000013850700efe0dfa78357c4fe938717002316f4fe835784fe93871700
            2314f4fe8327c4fd83a7070093870702130640009305200013850700efe0
            5fdf93070500639a07048357a4fe032704fdb304f7008327c4fd83a70700
            9387870013850700efe09fa59307050093f7f70f2380f4008357a4fe9387
            17002315f4fe8357e4fe938717002317f4fe835784fe9387f7ff2314f4fe
            0357c4fe832744fee302f7f46f00c0068327c4fd83a70700938707021306
            40009305200013850700efe01fd793070500639407048357a4fe032704fd
            b304f7008327c4fd83a707009387870013850700efe05f9d9307050093f7
            f70f2380f4008357a4fe938717002315f4fe8357e4fe938717002317f4fe
            0357e4fe832744fee3f8e7f8130000008320c10203248102832441021301
            010367800000130101fe232e1100232c8100130401022326a4fe2324b4fe
            8327c4fe638807168327c4fe83a70700130620009305100013850700efe0
            9fcc93070500639807148327c4fe83a70700930600001306100093050000
            13850700efe05fc18327c4fe83a70700938747009305f00f13850700efe0
            dfb88327c4fe83a707009387870193060000130600029305500013850700
            efe0dfbd8327c4fe83a70700938787019306000013060001930540001385
            0700efe0dfbb8327c4fe23a007048327c4fe032784fe23aae7028327c4fe
            03a78704930720006300f7028327c4fe83a7070093060000130680009305
            300013850700efe0dfb78327c4fe83a707009387c7019305300013850700
            efe05faf8327c4fe83a7070093061000130600019305400013850700efe0
            9fb48327c4fe83a7070093061000130600029305500013850700efe0dfb2
            8327c4fe83a707009387870193061000130600049305600013850700efe0
            dfb08327c4fe1307200023a4e7048327c4fe83a707009306100013061000
            9305000013850700efe05fae130000008320c10103248101130101026780
            0000130101fe232e1100232c8100130401022326a4fe2324b4fe2322c4fe
            8327c4fe638a07168327c4fe83a70700130620009305100013850700efe0
            5fb293070500639a07148327c4fe83a70700930600001306100093050000
            13850700efe01fa78327c4fe83a70700938747009305f00f13850700efe0
            9f9e8327c4fe83a707009387870193060000130600029305500013850700
            efe09fa38327c4fe83a70700938787019306000013060001930540001385
            0700efe09fa18327c4fe03a78704930720006302f7028327c4fe83a70700
            9387870193060000130600049305600013850700efe09f9e8327c4fe23a4
            07008327c4fe23a607008327c4fe23a807008327c4fe83a707009387c701
            9305300013850700efe09f948327c4fe032744fe23aee7028327c4fe0327
            84fe23ace7028327c4fe83a70700138787028327c4fe83a7870393850700
            13050700efe04fe68327c4fe83a707009306100013068000930530001385
            0700efe05f968327c4fe1307200023a4e7048327c4fe83a7070093061000
            130610009305000013850700efe0df93130000008320c101032481011301
            010267800000130101fd2326110223248102130401032326a4fe2324b4fe
            2322c4fe2320d4fe232ee4fc232cf4fc8327c4fe638c07228327c4fe83a7
            0700130620009305100013850700efe01f9793070500639c07208327c4fe
            83a7070093060000130610009305000013850700efe0df8b8327c4fe1307
            100023a4e7048327c4fe1307100023a2e7028327c4fe23aa07028327c4fe
            23ae07028327c4fe032784fd23a0e7048327c4fe032704fe23a4e7028327
            c4fe0327c4fd23a6e7028327c4fe23a807028327c4fe032784fe23a4e700
            8327c4fe032744fe23a6e7008327c4fe23a807008327c4fe83a707009387
            c7019305300013850700efe00ffc8327c4fe83a70700938747009305f00f
            13850700efe08ffa6f0080048327c4fe83a707009386c7008327c4fe03a7
            87008327c4fe83a70701b307f70083c707009385070013850600efe08fcc
            8327c4fe83a70701138717008327c4fe23a8e7008327c4fe83a707009387
            0702130680009305300013850700efe05f8493070500639c07008327c4fe
            03a707018327c4fe83a7c700e364f7f88327c4fe83a70700938787019306
            0000130600089305700013850700efe08ff78327c4fe83a7070093061000
            130600019305400013850700efe0cff58327c4fe83a70700930610001306
            00029305500013850700efe00ff48327c4fe83a707009387870193061000
            130600049305600013850700efe00ff28327c4fe83a70700938787019306
            1000130600029305500013850700efe00ff08327c4fe83a7070093878701
            93060000130600019305400013850700efe00fee8327c4fe83a707009306
            1000130610009305000013850700efe04fec130000008320c10203248102
            1301010367800000130101fd232611022324810213040103232ea4fc232c
            b4fc232ac4fc232604fe8327c4fd638c070a832744fd6388070a832784fd
            6384070a8327c4fd83a7070093060000130610009305000013850700efe0
            cfe58327c4fd23a207028327c4fd032784fd23a0e7028327c4fd83a70700
            9387870113850700efe00fe0930705002326f4fe8327c4fe93f787ff2326
            f4fe832744fd13f777008327c4feb367f70093e707052326f4fe8327c4fd
            83a70700938787018325c4fe13850700efe00fd88327c4fd83a707009306
            1000130610009305000013850700efe04fdd130000008320c10203248102
            1301010367800000130101fe232e1100232c8100130401022326a4fe2324
            b4fe2322c4fe8327c4fe638e0702832744fe638a0702832784fe63860702
            8327c4fe032784fe23aae7008327c4fe032744fe23ace7008327c4fe23ae
            07000325c4feef008079130000008320c101032481011301010267800000
            130101fe232e1100232c8100130401022326a4fe8327c4fe638007028327
            c4fe83a7070093061000130610009305000013850700efe08fd113000000
            8320c101032481011301010267800000130101fe232e1100232c81001304
            01022326a4fe8327c4fe638007028327c4fe83a707009306000013061000
            9305000013850700efe0cfcc130000008320c10103248101130101026780
            0000130101fd232611022324810213040103232ea4fc8327c4fd638e076a
            8327c4fd83a7070093870701130600049305600013850700efe00fd19307
            050013870700930710006310f7308327c4fd03a78704930710006314f724
            6f0040068327c4fd83a707009387870013850700efe04f962324a4fe8327
            c4fd03a707038327c4fd83a7c7026372f7028327c4fd03a787028327c4fd
            83a70703b307f700032784fe1377f70f2380e7008327c4fd83a707031387
            17008327c4fd23a8e7028327c4fd83a70700938707021306400093052000
            13850700efe00fc793070500e38007f86f0080048327c4fd83a707009386
            c7008327c4fd03a787008327c4fd83a70701b307f70083c7070093850700
            13850600efe08f888327c4fd83a70701138717008327c4fd23a8e7008327
            c4fd03a707018327c4fd83a7c7006374f7028327c4fd83a7070093870702
            130680009305300013850700efe00fbf93070500e38407f88327c4fd03a7
            07018327c4fd83a7c7006362f7086f0080048327c4fd83a707009386c700
            8327c4fd03a747018327c4fd83a7c701b307f70083c70700938507001385
            0600efd05fff8327c4fd83a7c701138717008327c4fd23aee7008327c4fd
            03a7c7018327c4fd83a787016374f7028327c4fd83a70700938707021306
            80009305300013850700efe0cfb593070500e38407f88327c4fd83a74702
            638407128327c4fd03a707018327c4fd83a7c700636af7108327c4fd03a7
            c7018327c4fd83a787016360f7108327c4fd83d7470493d7270093970701
            93d70701938717002326f4fe6f0080028327c4fd83a707009387c7009305
            000013850700efd0dff38327c4fe9387f7ff2326f4fe8327c4fd83a70700
            93870702130680009305300013850700efe00fac93070500639c07088327
            c4fee39a07fa6f00c0088327c4fd03a78704930720006312f7066f008003
            8327c4fd83a707009387870013850700efd01ff12324a4fe8327c4fd83a7
            4703638a07008327c4fd83a74703032584fee78007008327c4fd83a70700
            93870702130640009305200013850700efe08fa493070500e38607fa6f00
            c0018327c4fd83a707009387c7019305100013850700efe04f928327c4fd
            83a707009387470093061000130600049305600013850700efe04f978327
            c4fd83a7070093870701130610009305000013850700efe08f9e93070500
            1387070093071000631ef7088327c4fd03a78704930720006312f7048327
            c4fd83a7c703638a07008327c4fd83a7c7030325c4fde78007008327c4fd
            83a70700138787028327c4fd83a787039385070013050700efd01fde6f00
            c0028327c4fd03a7870493071000630ef7008327c4fd83a707009387c701
            9305200013850700efe00f868327c4fd83a7070093874700930610001306
            10009305000013850700efe00f8b8327c4fd83a707009387070113064000
            9305200013850700efe04f92930705001387070093071000631ef7028327
            c4fd83a707009387c7019305100013850700efd0dfff8327c4fd83a70700
            9387470093061000130640009305200013850700efe0cf848327c4fd83a7
            070093870701130680009305300013850700efe00f8c9307050013870700
            93071000631ef7028327c4fd83a707009387c7019305200013850700efd0
            9ff98327c4fd83a707009387470093061000130680009305300013850700
            efd09ffe8327c4fd83a7070093870701130600019305400013850700efe0
            cf859307050013870700930710006314f7080325c4fdef0040328327c4fd
            83a70702638407028327c4fd83a607028327c4fd03a787028327c4fd83a7
            07039385070013050700e78006008327c4fd1307100023a2e7028327c4fd
            83a707009387870193060000130600019305400013850700efd09ff58327
            c4fd83a707009387470093061000130600019305400013850700efd09ff3
            8327c4fd83a7070093870701130600029305500013850700efd0dffa9307
            050013870700930710006316f7128327c4fd03a7870493071000631ef70e
            0325c4fdef0040268327c4fd83a707032322f4fe8327c4fd83a707026382
            07068327c4fd23a207028327c4fd23aa07008327c4fd23ac07008327c4fd
            23ae07008327c4fd83a70700938747009306100013060001930540001385
            0700efd0dfe98327c4fd83a7070093878701930610001306000193054000
            13850700efd0dfe78327c4fd23a807008327c4fd83a707009387c7019305
            300013850700efd0dfde0325c4fdef0080088327c4fd23a807028327c4fd
            83a70704638007028327c4fd03a707048327c4fd83a78702832544fe1385
            0700e70007008327c4fd83a7070093874700930610001306000493056000
            13850700efd05fe08327c4fd83a707009387470093061000130600029305
            500013850700efd05fde130000008320c102032481021301010367800000
            130101fe232e1100232c8100130401022326a4fe6f0080048327c4fe83a7
            07009386c7008327c4fe03a787008327c4fe83a70701b307f70083c70700
            9385070013850600efd0dfa68327c4fe83a70701138717008327c4fe23a8
            e7008327c4fe03a707018327c4fe83a7c7006374f7028327c4fe83a70700
            93870702130680009305300013850700efd05fdd93070500e38407f88327
            c4fe03a707018327c4fe83a7c7006362f7086f0080048327c4fe83a70700
            9386c7008327c4fe03a747018327c4fe83a7c701b307f70083c707009385
            070013850600efd09f9d8327c4fe83a7c701138717008327c4fe23aee700
            8327c4fe03a7c7018327c4fe83a787016374f7028327c4fe83a707009387
            0702130680009305300013850700efd01fd493070500e38407f813000000
            8320c101032481011301010267800000130101fd23261102232481021304
            0103232ea4fc8327c4fd03a78704930710006318f7086f0040068327c4fd
            83a707009387870013850700efd05f972326a4fe8327c4fd03a707038327
            c4fd83a7c7026372f7028327c4fd03a787028327c4fd83a70703b307f700
            0327c4fe1377f70f2380e7008327c4fd83a70703138717008327c4fd23a8
            e7028327c4fd83a7070093870702130640009305200013850700efd01fc8
            93070500e38007f86f00c0088327c4fd03a78704930720006312f7066f00
            80038327c4fd83a707009387870013850700efd09f8d2326a4fe8327c4fd
            83a74703638a07008327c4fd83a747030325c4fee78007008327c4fd83a7
            070093870702130640009305200013850700efd01fc193070500e38607fa
            6f00c0018327c4fd83a707009387c7019305100013850700efd0dfae1300
            00008320c102032481021301010367800000130101fe232e1100232c8100
            130401022326a4fe8327c4fe83a707009306000013061000930500001385
            0700efd09fb18327c4fe83a707009387c7019305300013850700efd01fa9
            8327c4fe83a70700938747009305f00f13850700efd09fa78327c4fe83a7
            070093061000130610009305000013850700efd0dfac130000008320c101
            032481011301010267800000130101fd232611022324810213040103232e
            a4fc232cb4fc232ac4fca30704fe832784fd2324f4fe8327c4fd032784fd
            23a0e7008327c4fd032744fd23a2e700a30704fe832784fd2324f4fe6f00
            800293050000032584feefd0df9e832784fe938747002324f4fe8347f4fe
            93871700a307f4fe0347f4fe9307f001e3fae7fc8327c4fd83a747001307
            1000638ae7021307100063e4e706130720006384e7006f00000c8327c4fd
            83a70700938707089305f0ff13850700efd00fee6f00400a8327c4fd83a7
            070013870708b70701009385f7ff13050700efd00fff8327c4fd83a70700
            13874708b70701009385f7ff13050700efd04ffd6f0080068327c4fd83a7
            0700938707089305f00f13850700efd05f938327c4fd83a7070093874708
            9305f00f13850700efd0df918327c4fd83a70700938787089305f00f1385
            0700efd05f908327c4fd83a707009387c7089305f00f13850700efd0df8e
            13000000130000008320c102032481021301010367800000130101fd2326
            11022324810213040103232ea4fc232cb4fc232ac4fc032784fd9307f001
            63e8e7028327c4fd83a707002326f4fe832784fd939727000327c4feb307
            f7002326f4fe832544fd0325c4feefd04fdd130000008320c10203248102
            1301010367800000130101fe232e1100232c8100130401022326a4fe2324
            b4fe8327c4fe83a7470013071000638ae7021307100063eee70613072000
            6384e7006f0000108327c4fe83a707009387070a832584fe13850700efd0
            cfd66f00400e8327c4fe83a707009387070a032784fe1317070113570701
            9305070013850700efd04fe78327c4fe83a707001387470a832784fe93d7
            07019397070193d707019385070013050700efd0cfe46f0040098327c4fe
            83a707009387070a032784fe1377f70f9305070013850700efd04ffa8327
            c4fe83a707001387470a832784fe93d7870093f7f70f9385070013050700
            efd00ff88327c4fe83a707001387870a832784fe93d7070193f7f70f9385
            070013050700efd0cff58327c4fe83a707001387c70a832784fe93d78701
            93f7f70f9385070013050700efd08ff313000000130000008320c1010324
            81011301010267800000130101fd232611022324810213040103232ea4fc
            232604fe8327c4fd83a7470013071000638ae7021307100063e2e7081307
            20006384e7006f0080128327c4fd83a707009387070913850700efd0cfc5
            2326a4fe6f00c0108327c4fd83a707009387070913850700efd08fd79307
            0500138707008327c4feb3e7e7002326f4fe8327c4fd83a7070093874709
            13850700efd00fd59307050093970701138707008327c4feb3e7e7002326
            f4fe6f00400b8327c4fd83a707009387070913850700efd08fe993070500
            138707008327c4feb3e7e7002326f4fe8327c4fd83a70700938747091385
            0700efd00fe79307050093978700138707008327c4feb3e7e7002326f4fe
            8327c4fd83a707009387870913850700efd04fe493070500939707011387
            07008327c4feb3e7e7002326f4fe8327c4fd83a707009387c70913850700
            efd08fe19307050093978701138707008327c4feb3e7e7002326f4fe1300
            00008327c4fe138507008320c102032481021301010367800000130101fd
            232611022324810213040103232ea4fc232604fe8327c4fd83a747001307
            1000638ae7021307100063e2e708130720006384e7006f0080128327c4fd
            83a707009387070a13850700efd04fae2326a4fe6f00c0108327c4fd83a7
            07009387070a13850700efd00fc093070500138707008327c4feb3e7e700
            2326f4fe8327c4fd83a707009387470a13850700efd08fbd930705009397
            0701138707008327c4feb3e7e7002326f4fe6f00400b8327c4fd83a70700
            9387070a13850700efd08fba93070500138707008327c4feb3e7e7002326
            f4fe8327c4fd83a707009387470a13850700efd00fb89307050093978700
            138707008327c4feb3e7e7002326f4fe8327c4fd83a707009387870a1385
            0700efd04fb59307050093970701138707008327c4feb3e7e7002326f4fe
            8327c4fd83a707009387c70a13850700efd08fb293070500939787011387
            07008327c4feb3e7e7002326f4fe130000008327c4fe138507008320c102
            032481021301010367800000130101fd232611022324810213040103232e
            a4fc232cb4fc93070600a30bf4fc8327c4fd83a7470013071000638ae708
            1307100063e0e714130720006384e7006f00801e8327c4fd83a707009387
            070a13850700efd04f962326a4fe834774fd6394070213071000832784fd
            b317f70093c7f7ff138707008327c4feb3f7e7002326f4fe6f0000021307
            1000832784fdb317f700138707008327c4feb3e7e7002326f4fe8327c4fd
            83a707009387070a8325c4fe13850700efd08f8c6f00c0168327c4fd03a7
            0700832784fd93d7470093972700b307f7009387070a2322f4fe032544fe
            efd0cfa0930705002315f4fe834774fd63900704832784fd93f7f7001307
            1000b317f7009397070193d7074193c7f7ff13970701135707418317a4fe
            b377f7009397070193d707412315f4fe6f000003832784fd93f7f7001307
            1000b317f70013970701135707418317a4feb367f7009397070193d70741
            2315f4fe8357a4fe93850700032544feefd04f946f00800b8327c4fd03a7
            0700832784fd93d7370093972700b307f7009387070a2320f4fe032504fe
            efd00fad93070500a304f4fe834774fd63900704832784fd93f777001307
            1000b317f7009397870193d7874193c7f7ff1397870113578741830794fe
            b377f7009397870193d78741a304f4fe6f000003832784fd93f777001307
            1000b317f7001397870113578741830794feb367f7009397870193d78741
            a304f4fe834794fe93850700032504feefd0cfa013000000130000008320
            c102032481021301010367800000130101fd232611022324810213040103
            232ea4fc232cb4fc232ac4fc8327c4fd83a707002326f4fe832744fd1307
            1000638ce7001307100063e2e706130720006388e70a6f00000f13061000
            832584fd0325c4fdeff01fd78327c4fd03a70700832784fd93972700b307
            f7002326f4fe0325c4feefd08f9b930705002324f4fe832784fe93e74700
            2324f4fe832584fe0325c4feefd0cf956f00c00913060000832584fd0325
            c4fdeff0dfd18327c4fd03a70700832784fd93972700b307f7002326f4fe
            0325c4feefd04f96930705002324f4fe832784fe93e747002324f4fe8325
            84fe0325c4feefd08f906f0080048327c4fd03a70700832784fd93972700
            b307f7002326f4fe0325c4feefd00f92930705002324f4fe832784fe93f7
            b7ff2324f4fe832584fe0325c4feefd04f8c13000000130000008320c102
            032481021301010367800000130101fd232611022324810213040103232e
            a4fc232cb4fc8327c4fd83a707002326f4fe032784fd9307f00163e0e704
            832784fd939727000327c4feb307f7002326f4fe0325c4feefd0cf899307
            05002324f4fe832784fe93e787002324f4fe832584fe0325c4feefd00f84
            130000008320c102032481021301010367800000130101fd232611022324
            810213040103232ea4fc232cb4fc8327c4fd83a707002326f4fe032784fd
            9307f00163e0e704832784fd939727000327c4feb307f7002326f4fe0325
            c4feefd0cf81930705002324f4fe832784fe93f777ff2324f4fe832584fe
            0325c4feefc01ffc130000008320c1020324810213010103678000001301
            01fd232611022324810213040103232ea4fc232cb4fc13071000832784fd
            b317f7002326f4fe8327c4fd83a7470013071000638ae7021307100063e4
            e706130720006384e7006f00800d8327c4fd83a70700938707088325c4fe
            13850700efc0dfc96f00c00b8327c4fd83a70700938707088325c4fe1385
            0700efc01fdb8327c4fd83a70700138747088327c4fe93d7070193850700
            13050700efc01fd96f0000088327c4fd83a70700938707088325c4fe1385
            0700efc01fef8327c4fd83a70700138747088327c4fe93d7870093850700
            13050700efc01fed8327c4fd83a70700138787088327c4fe93d707019385
            070013050700efc01feb8327c4fd83a707001387c7088327c4fe93d78701
            9385070013050700efc01fe913000000130000008320c102032481021301
            010367800000130101fd232611022324810213040103232ea4fc232cb4fc
            a30704fe6f0040038347f4fe9395070193d50541832784fd1307f0ff9306
            0014130600000325c4fdef4000188347f4fe93871700a307f4fe0347f4fe
            9307f00ee3f4e7fc832784fd130700009306000f13060000930500050325
            c4fdef40c014832784fd130700009306000f130600009305000a0325c4fd
            ef400013832784fd130700009306000f13060005930500000325c4fdef40
            4024832784fd130700009306000f1306000a930500000325c4fdef408022
            130000008320c102032481021301010367800000130101fc232e1102232c
            8102130401042326a4fc2324b4fc832584fc0325c4fceff01ff093071000
            a303f4fea30704fe232404fe93070002230ef4fc93070002a30ef4fc9307
            0002230ff4fc93070002a30ff4fc930700022300f4fe93070002a300f4fe
            930700022301f4fe93070002a301f4fe930700022302f4fe6f00c0128327
            84fe93f7f70f93f7170093f7f70f93871700a303f4fe034774fe93071000
            6314f706034774fe9307c4fd9306070013860700832584fc0325c4fcef00
            401193070500130704ffb307f700130780052386e7fe034774fe9307c4fd
            832684fc13060700938507000325c4fcef20c01b93070500a307f4fe8327
            84fe938717002324f4fe6f004008232c04fc6f000001832784fd93871700
            232cf4fc032784fd9307e000e3f6e7fe034774fe9307c4fd930607001386
            0700832584fc0325c4fcef00100f93070500130704ffb307f7001307f004
            2386e7fe034774fe9307c4fd832684fc13060700938507000325c4fcef20
            801393070500a307f4fe832784fe938717002324f4fe8347f4fe639e0700
            032784fe9307800063f8e700832584fc0325c4fcef20c007032784fe9307
            800063e6e7008347f4fee38407ec130000008320c1030324810313010104
            67800000130101fc232e1102232c8102130401042326a4fc2324b4fc2322
            c4fc93870600a301f4fca30704fe6f00900013060004832584fc0325c4fc
            ef308006930705009397870193d7874163d4077e130794fd9306a4fd9307
            c4fd13860700832584fc0325c4fcef30401e0355c4fd1307000f93060000
            b7170000138687ed93056009ef109076930705009397070193d70701231e
            f4fc0355a4fd1307001493060000b7170000138607fa93052008ef10d073
            930705009397070193d70701231df4fc0357c4fd9307f00463ece70a0357
            a4fd9307f00463e6e70a832744fc03c7070093070002631ef70893074001
            2316f4fe930740012315f4fe9307c0032314f4fe9307c0032313f4fe9307
            c0032312f4fe930740012311f4fe930740012310f4fe9307c003231ff4fc
            8315c4fe0316a4fe831684fe031764fe032884fcb7070100938707800325
            c4fcef408064831544fe031624fe831604fe0317e4fd032884fcb7070100
            938707800325c4fcef40406293071000a307f4fe930700006f00006d0357
            c4fd9307f00963e4e70c0357c4fd9307000563fee70a0357a4fd9307f004
            63e8e70a832744fc9387170003c7070093070002631ef708930740062316
            f4fe930740012315f4fe9307c0082314f4fe9307c0032313f4fe9307c008
            2312f4fe930740012311f4fe930740062310f4fe9307c003231ff4fc8315
            c4fe0316a4fe831684fe031764fe032884fcb7070100938707800325c4fc
            ef408057831544fe031624fe831604fe0317e4fd032884fcb70701009387
            07800325c4fcef40405593071000a307f4fe930710006f0000600357c4fd
            9307f00e63e4e70c0357c4fd9307000a63fee70a0357a4fd9307f00463e8
            e70a832744fc9387270003c7070093070002631ef7089307400b2316f4fe
            930740012315f4fe9307c00d2314f4fe9307c0032313f4fe9307c00d2312
            f4fe930740012311f4fe9307400b2310f4fe9307c003231ff4fc8315c4fe
            0316a4fe831684fe031764fe032884fcb7070100938707800325c4fcef40
            804a831544fe031624fe831604fe0317e4fd032884fcb707010093870780
            0325c4fcef40404893071000a307f4fe930720006f0000530357c4fd9307
            f00463e4e70c0357a4fd9307000563fee70a0357a4fd9307f00963e8e70a
            832744fc9387370003c7070093070002631ef708930740012316f4fe9307
            40062315f4fe9307c0032314f4fe9307c0082313f4fe9307c0032312f4fe
            930740062311f4fe930740012310f4fe9307c008231ff4fc8315c4fe0316
            a4fe831684fe031764fe032884fcb7070100938707800325c4fcef40803d
            831544fe031624fe831604fe0317e4fd032884fcb7070100938707800325
            c4fcef40403b93071000a307f4fe930730006f0000460357c4fd9307f009
            63eae70c0357c4fd9307000563f4e70c0357a4fd9307f00963eee70a0357
            a4fd9307000563f8e70a832744fc9387470003c7070093070002631ef708
            930740062316f4fe930740062315f4fe9307c0082314f4fe9307c0082313
            f4fe9307c0082312f4fe930740062311f4fe930740062310f4fe9307c008
            231ff4fc8315c4fe0316a4fe831684fe031764fe032884fcb70701009387
            07800325c4fcef40c02f831544fe031624fe831604fe0317e4fd032884fc
            b7070100938707800325c4fcef40802d93071000a307f4fe930740006f00
            40380357c4fd9307f00e63eae70c0357c4fd9307000a63f4e70c0357a4fd
            9307000563fee70a0357a4fd9307f00963e8e70a832744fc9387570003c7
            070093070002631ef7089307400b2316f4fe930740062315f4fe9307c00d
            2314f4fe9307c0082313f4fe9307c00d2312f4fe930740062311f4fe9307
            400b2310f4fe9307c008231ff4fc8315c4fe0316a4fe831684fe031764fe
            032884fcb7070100938707800325c4fcef400022831544fe031624fe8316
            04fe0317e4fd032884fcb7070100938707800325c4fcef40c01f93071000
            a307f4fe930750006f00802a0357c4fd9307f00463e4e70c0357a4fd9307
            f00e63eee70a0357a4fd9307000a63f8e70a832744fc9387670003c70700
            93070002631ef708930740012316f4fe9307400b2315f4fe9307c0032314
            f4fe9307c00d2313f4fe9307c0032312f4fe9307400b2311f4fe93074001
            2310f4fe9307c00d231ff4fc8315c4fe0316a4fe831684fe031764fe0328
            84fcb7070100938707800325c4fcef400015831544fe031624fe831604fe
            0317e4fd032884fcb7070100938707800325c4fcef40c01293071000a307
            f4fe930760006f00801d0357c4fd9307f00963eae70c0357c4fd93070005
            63f4e70c0357a4fd9307f00e63eee70a0357a4fd9307000a63f8e70a8327
            44fc9387770003c7070093070002631ef708930740062316f4fe9307400b
            2315f4fe9307c0082314f4fe9307c00d2313f4fe9307c0082312f4fe9307
            400b2311f4fe930740062310f4fe9307c00d231ff4fc8315c4fe0316a4fe
            831684fe031764fe032884fcb7070100938707800325c4fcef4040078315
            44fe031624fe831604fe0317e4fd032884fcb7070100938707800325c4fc
            ef40000593071000a307f4fe930770006f00c00f0357c4fd9307f00e63ea
            e70c0357c4fd9307000a63f4e70c0357a4fd9307000a63fee70a0357a4fd
            9307f00e63e8e70a832744fc9387870003c7070093070002631ef7089307
            400b2316f4fe9307400b2315f4fe9307c00d2314f4fe9307c00d2313f4fe
            9307c00d2312f4fe9307400b2311f4fe9307400b2310f4fe9307c00d231f
            f4fc8315c4fe0316a4fe831684fe031764fe032884fcb707010093870780
            0325c4fcef309079831544fe031624fe831604fe0317e4fd032884fcb707
            0100938707800325c4fcef30507793071000a307f4fe930780006f000002
            8347f4fe63980700034734fc930710006306f7fea30704fe9307f00f1385
            07008320c103032481031301010467800000130101fc232e1102232c8102
            130401042326a4fc2324b4fc2322c4fc93870600a301f4fca30704fe6f00
            c02a232404fe6f000003832784fe032744fcb307f70003c70700832784fe
            930604ffb387f6002384e7fe832784fe938717002324f4fe032784fe9307
            8000e3d6e7fc8347f4fe130704ffb307f70003c787fe93070002631cf700
            8347f4fe130704ffb307f7001307f0042384e7fe034734fc930784fd9305
            070013850700ef1050759307050013870700930710006318f7208347f4fe
            639a0702930780022312f4fe930780022311f4fe831544fe031624fe8327
            84fc1307f0019306e0010325c4fcef30901e6f00c0030347f4fe93071000
            6318f702930780072312f4fe930780022311f4fe831544fe031624fe8327
            84fc1307f0019306e0010325c4fcef30d01a0347f4fe93072000631af702
            9307800c2312f4fe930780022311f4fe831544fe031624fe832784fc1307
            f0019306e0010325c4fcef3050176f00c0030347f4fe930730006318f702
            930780022312f4fe930780072311f4fe831544fe031624fe832784fc1307
            f0019306e0010325c4fcef3090130347f4fe93074000631af70293078007
            2312f4fe930780072311f4fe831544fe031624fe832784fc1307f0019306
            e0010325c4fcef3010106f00c0030347f4fe930750006318f7029307800c
            2312f4fe930780072311f4fe831544fe031624fe832784fc1307f0019306
            e0010325c4fcef30500c0347f4fe93076000631af702930780022312f4fe
            9307800c2311f4fe831544fe031624fe832784fc1307f0019306e0010325
            c4fcef30d0086f00c0030347f4fe930770006318f702930780072312f4fe
            9307800c2311f4fe831544fe031624fe832784fc1307f0019306e0010325
            c4fcef3010050347f4fe930780006318f7029307800c2312f4fe9307800c
            2311f4fe831544fe031624fe832784fc1307f0019306e0010325c4fcef30
            90018347f4fe6f00405e8347f4fe93871700a307f4fe0347f4fe93078000
            e3f8e7d4a30304fe6f00c02a230304fe6f000003834764fe034764fe8326
            44fc3387e60003470700930604ffb387f6002384e7fe834764fe93871700
            2303f4fe034764fe93078000e3f6e7fc834774fe130704ffb307f70003c7
            87fe93070002631cf700834774fe130704ffb307f700130780052384e7fe
            034734fc930784fd9305070013850700ef10904993070500138707009307
            10006318f720834774fe639a0702930780022312f4fe930780022311f4fe
            831544fe031624fe832784fc1307f0019306e0010325c4fcef30c0726f00
            c003034774fe930710006318f702930780072312f4fe930780022311f4fe
            831544fe031624fe832784fc1307f0019306e0010325c4fcef30006f0347
            74fe93072000631af7029307800c2312f4fe930780022311f4fe831544fe
            031624fe832784fc1307f0019306e0010325c4fcef30806b6f00c0030347
            74fe930730006318f702930780022312f4fe930780072311f4fe831544fe
            031624fe832784fc1307f0019306e0010325c4fcef30c067034774fe9307
            4000631af702930780072312f4fe930780072311f4fe831544fe031624fe
            832784fc1307f0019306e0010325c4fcef3040646f00c003034774fe9307
            50006318f7029307800c2312f4fe930780072311f4fe831544fe031624fe
            832784fc1307f0019306e0010325c4fcef308060034774fe93076000631a
            f702930780022312f4fe9307800c2311f4fe831544fe031624fe832784fc
            1307f0019306e0010325c4fcef30005d6f00c003034774fe930770006318
            f702930780072312f4fe9307800c2311f4fe831544fe031624fe832784fc
            1307f0019306e0010325c4fcef304059034774fe930780006318f7029307
            800c2312f4fe9307800c2311f4fe831544fe031624fe832784fc1307f001
            9306e0010325c4fcef30c055834774fe6f008032834774fe93871700a303
            f4fe034774fe93078000e3f8e7d4832744fc03c70700930700026312f704
            832744fc1307f0042380e700930780022312f4fe930780022311f4fe8315
            44fe031624fe832784fc1307f0019306e0010325c4fcef30404f93070000
            6f00002c832744fc9387270003c70700930700026314f704832744fc9387
            27001307f0042380e7009307800c2312f4fe930780022311f4fe831544fe
            031624fe832784fc1307f0019306e0010325c4fcef30c049930720006f00
            8026832744fc9387670003c70700930700026314f704832744fc93876700
            1307f0042380e700930780022312f4fe9307800c2311f4fe831544fe0316
            24fe832784fc1307f0019306e0010325c4fcef304044930760006f000021
            832744fc9387870003c70700930700026314f704832744fc938787001307
            f0042380e7009307800c2312f4fe9307800c2311f4fe831544fe031624fe
            832784fc1307f0019306e0010325c4fcef30c03e930780006f00801b8327
            44fc9387470003c70700930700026314f704832744fc938747001307f004
            2380e700930780072312f4fe930780072311f4fe831544fe031624fe8327
            84fc1307f0019306e0010325c4fcef304039930740006f000016832744fc
            9387170003c70700930700026314f704832744fc938717001307f0042380
            e700930780072312f4fe930780022311f4fe831544fe031624fe832784fc
            1307f0019306e0010325c4fcef30c033930710006f008010832744fc9387
            370003c70700930700026314f704832744fc938737001307f0042380e700
            930780022312f4fe930780072311f4fe831544fe031624fe832784fc1307
            f0019306e0010325c4fcef30402e930730006f00000b832744fc93875700
            03c70700930700026314f704832744fc938757001307f0042380e7009307
            800c2312f4fe930780072311f4fe831544fe031624fe832784fc1307f001
            9306e0010325c4fcef30c028930750006f008005832744fc9387770003c7
            0700930700026310f704832744fc938777001307f0042380e70093078007
            2312f4fe9307800c2311f4fe831544fe031624fe832784fc1307f0019306
            e0010325c4fcef3040239307f00f138507008320c1030324810313010104
            67800000130101fa232e1104232c8104130401062326a4fa2324b4fa9307
            1000a30ff4fca30704fe230704fea30604fe230604fea30504fe230504fe
            a30404fe230404fea30304fe230304fe232004fe93071003230ef4fa9307
            2003a30ef4fa93073003230ff4fa93074003a30ff4fa930750032300f4fc
            93076003a300f4fc930770032301f4fc93078003a301f4fc930790032302
            f4fc832584fa0325c4faefe09fb96f00505e13060004832584fa0325c4fa
            ef10506d930705009397870193d78741e3d2075c832704fe93f7f70f93f7
            170093f7f70f93871700a30ff4fc130754fc930664fc930784fc13860700
            832584fa0325c4faef208003035584fc1307000f93060000b71700001386
            87ed93056009ef00d05b930705009397070193d707012314f4fc035564fc
            1307001493060000b7170000138607fa93052008ef001059930705009397
            070193d707012313f4fc035784fc9307f00463e0e716035764fc9307f004
            63eae7148347e4fe6396071493074001231ef4fc93074001231df4fc9307
            c003231cf4fc9307c003231bf4fc9307c003231af4fc930740012319f4fc
            930740012318f4fc9307c0032317f4fc930780022316f4fc930780022315
            f4fc0347f4fd930710006318f7088315c4fd0316a4fd831684fd031764fd
            032884fab7070100938707800325c4faef308048831544fd031624fd8316
            04fd0317e4fc032884fab7070100938707800325c4faef304046832704fe
            938717002320f4fe930710002307f4fe93078005230ef4fa0347f4fd9307
            c4fb832684fa13060700938507000325c4faef00505793070500a307f4fe
            6f0010438315c4fc0316a4fc832784fa1307f0019306e0010325c4faef20
            907a832704fe938717002320f4fe930710002307f4fe9307f004230ef4fa
            0347f4fd9307c4fb832684fa13060700938507000325c4faef0050519307
            0500a307f4fe6f00103d035784fc9307f00963e6e716035784fc93070005
            63f0e716035764fc9307f00463eae7148347d4fe6396071493074006231e
            f4fc93074001231df4fc9307c008231cf4fc9307c003231bf4fc9307c008
            231af4fc930740012319f4fc930740062318f4fc9307c0032317f4fc9307
            80072316f4fc930780022315f4fc0347f4fd930710006318f7088315c4fd
            0316a4fd831684fd031764fd032884fab7070100938707800325c4faef30
            4031831544fd031624fd831604fd0317e4fc032884fab707010093870780
            0325c4faef30002f832704fe938717002320f4fe93071000a306f4fe9307
            8005a30ef4fa0347f4fd9307c4fb832684fa13060700938507000325c4fa
            ef00104093070500a307f4fe6f00d02b8315c4fc0316a4fc832784fa1307
            f0019306e0010325c4faef205063832704fe938717002320f4fe93071000
            a306f4fe9307f004a30ef4fa0347f4fd9307c4fb832684fa130607009385
            07000325c4faef00103a93070500a307f4fe6f00d025035784fc9307f00e
            63e6e716035784fc9307000a63f0e716035764fc9307f00463eae7148347
            c4fe639607149307400b231ef4fc93074001231df4fc9307c00d231cf4fc
            9307c003231bf4fc9307c00d231af4fc930740012319f4fc9307400b2318
            f4fc9307c0032317f4fc9307800c2316f4fc930780022315f4fc0347f4fd
            930710006318f7088315c4fd0316a4fd831684fd031764fd032884fab707
            0100938707800325c4faef30001a831544fd031624fd831604fd0317e4fc
            032884fab7070100938707800325c4faef30c017832704fe938717002320
            f4fe930710002306f4fe93078005230ff4fa0347f4fd9307c4fb832684fa
            13060700938507000325c4faef00d02893070500a307f4fe6f0090148315
            c4fc0316a4fc832784fa1307f0019306e0010325c4faef20104c832704fe
            938717002320f4fe930710002306f4fe9307f004230ff4fa0347f4fd9307
            c4fb832684fa13060700938507000325c4faef00d02293070500a307f4fe
            6f00900e035784fc9307f00463e6e716035764fc9307000563f0e7160357
            64fc9307f00963eae7148347b4fe6396071493074001231ef4fc93074006
            231df4fc9307c003231cf4fc9307c008231bf4fc9307c003231af4fc9307
            40062319f4fc930740012318f4fc9307c0082317f4fc930780022316f4fc
            930780072315f4fc0347f4fd930710006318f7088315c4fd0316a4fd8316
            84fd031764fd032884fab7070100938707800325c4faef30c002831544fd
            031624fd831604fd0317e4fc032884fab7070100938707800325c4faef30
            8000832704fe938717002320f4fe93071000a305f4fe93078005a30ff4fa
            0347f4fd9307c4fb832684fa13060700938507000325c4faef0090119307
            0500a307f4fe6f00407d8315c4fc0316a4fc832784fa1307f0019306e001
            0325c4faef20d034832704fe938717002320f4fe93071000a305f4fe9307
            f004a30ff4fa0347f4fd9307c4fb832684fa13060700938507000325c4fa
            ef00900b93070500a307f4fe6f004077035784fc9307f00963ece7160357
            84fc9307000563f6e716035764fc9307f00963e0e716035764fc93070005
            63fae7148347a4fe6396071493074006231ef4fc93074006231df4fc9307
            c008231cf4fc9307c008231bf4fc9307c008231af4fc930740062319f4fc
            930740062318f4fc9307c0082317f4fc930780072316f4fc930780072315
            f4fc0347f4fd930710006318f7088315c4fd0316a4fd831684fd031764fd
            032884fab7070100938707800325c4faef20d06a831544fd031624fd8316
            04fd0317e4fc032884fab7070100938707800325c4faef209068832704fe
            938717002320f4fe930710002305f4fe930780052300f4fc0347f4fd9307
            c4fb832684fa13060700938507000325c4faef00807993070500a307f4fe
            6f0040658315c4fc0316a4fc832784fa1307f0019306e0010325c4faef20
            d01c832704fe938717002320f4fe930710002305f4fe9307f0042300f4fc
            0347f4fd9307c4fb832684fa13060700938507000325c4faef0080739307
            0500a307f4fe6f00405f035784fc9307f00e63ece716035784fc9307000a
            63f6e716035764fc9307000563f0e716035764fc9307f00963eae7148347
            94fe639607149307400b231ef4fc93074006231df4fc9307c00d231cf4fc
            9307c008231bf4fc9307c00d231af4fc930740062319f4fc9307400b2318
            f4fc9307c0082317f4fc9307800c2316f4fc930780072315f4fc0347f4fd
            930710006318f7088315c4fd0316a4fd831684fd031764fd032884fab707
            0100938707800325c4faef20d052831544fd031624fd831604fd0317e4fc
            032884fab7070100938707800325c4faef209050832704fe938717002320
            f4fe93071000a304f4fe93078005a300f4fc0347f4fd9307c4fb832684fa
            13060700938507000325c4faef00806193070500a307f4fe6f00404d8315
            c4fc0316a4fc832784fa1307f0019306e0010325c4faef20d004832704fe
            938717002320f4fe93071000a304f4fe9307f004a300f4fc0347f4fd9307
            c4fb832684fa13060700938507000325c4faef00805b93070500a307f4fe
            6f004047035784fc9307f00463e6e716035764fc9307f00e63e0e7160357
            64fc9307000a63fae714834784fe6396071493074001231ef4fc9307400b
            231df4fc9307c003231cf4fc9307c00d231bf4fc9307c003231af4fc9307
            400b2319f4fc930740012318f4fc9307c00d2317f4fc930780022316f4fc
            9307800c2315f4fc0347f4fd930710006318f7088315c4fd0316a4fd8316
            84fd031764fd032884fab7070100938707800325c4faef20903b831544fd
            031624fd831604fd0317e4fc032884fab7070100938707800325c4faef20
            5039832704fe938717002320f4fe930710002304f4fe930780052301f4fc
            0347f4fd9307c4fb832684fa13060700938507000325c4faef00404a9307
            0500a307f4fe6f0000368315c4fc0316a4fc832784fa1307f0019306e001
            0325c4faef20806d832704fe938717002320f4fe930710002304f4fe9307
            f0042301f4fc0347f4fd9307c4fb832684fa13060700938507000325c4fa
            ef00404493070500a307f4fe6f000030035784fc9307f00963ece7160357
            84fc9307000563f6e716035764fc9307f00e63e0e716035764fc9307000a
            63fae714834774fe6396071493074006231ef4fc9307400b231df4fc9307
            c008231cf4fc9307c00d231bf4fc9307c008231af4fc9307400b2319f4fc
            930740062318f4fc9307c00d2317f4fc930780072316f4fc9307800c2315
            f4fc0347f4fd930710006318f7088315c4fd0316a4fd831684fd031764fd
            032884fab7070100938707800325c4faef209023831544fd031624fd8316
            04fd0317e4fc032884fab7070100938707800325c4faef205021832704fe
            938717002320f4fe93071000a303f4fe93078005a301f4fc0347f4fd9307
            c4fb832684fa13060700938507000325c4faef00403293070500a307f4fe
            6f00001e8315c4fc0316a4fc832784fa1307f0019306e0010325c4faef20
            8055832704fe938717002320f4fe93071000a303f4fe9307f004a301f4fc
            0347f4fd9307c4fb832684fa13060700938507000325c4faef00402c9307
            0500a307f4fe6f000018035784fc9307f00e63eae716035784fc9307000a
            63f4e716035764fc9307000a63fee714035764fc9307f00e63e8e7148347
            64fe639407149307400b231ef4fc9307400b231df4fc9307c00d231cf4fc
            9307c00d231bf4fc9307c00d231af4fc9307400b2319f4fc9307400b2318
            f4fc9307c00d2317f4fc9307800c2316f4fc9307800c2315f4fc0347f4fd
            930710006318f7088315c4fd0316a4fd831684fd031764fd032884fab707
            0100938707800325c4faef20900b831544fd031624fd831604fd0317e4fc
            032884fab7070100938707800325c4faef205009832704fe938717002320
            f4fe930710002303f4fe930780052302f4fc0347f4fd9307c4fb832684fa
            13060700938507000325c4faef00401a93070500a307f4fe6f0000069307
            f0042302f4fc8315c4fc0316a4fc832784fa1307f0019306e0010325c4fa
            ef20003d832704fe938717002320f4fe930710002303f4fe0347f4fd9307
            c4fb832684fa13060700938507000325c4faef00401493070500a307f4fe
            032704fe9307800063e6e7008347f4fe638807a08347f4fe639e07000327
            04fe9307800063f8e700832584fa0325c4faef000008130000008320c105
            032481051301010667800000130101fe232e810013040102930707002317
            a4fe2316b4fe2315c4fe2314d4fe2313f4fe0357e4fe8357c4fe3307f740
            835664fe835784feb387f6403307f7028356a4fe8357c4feb387f6403347
            f702835784feb307f700138507000324c1011301010267800000130101fe
            232e1100232c8100130401022326a4fe2324b4fe032884fe9307007e1307
            e00b9306e00b13062003930520030325c4feef20c070032884fe9307007e
            1307e00b93062003130620039305e00b0325c4feef20c06e832784fe1307
            007e9306400613068007930580070325c4feef204027130000008320c101
            032481011301010267800000130101fe232e1100232c8100130401022326
            a4fe2324b4fe930706002320d4fea303f4fe832784fe03c7070093078005
            631ef706832784fe9387370003c70700930780056314f706832784fe9387
            670003c7070093078005631af704032804feb7070100938707801307000f
            9306000f13060000930500000325c4feef20c063032804feb70701009387
            07801307000f93060000130600009305000f0325c4feef20806193071000
            6f00806c832784fe9387170003c7070093078005631ef706832784fe9387
            470003c70700930780056314f706832784fe9387770003c7070093078005
            631af704032804feb7070100938707801307000f9306000f130600009305
            00000325c4feef20005b032804feb7070100938707801307000f93060000
            130600009305000f0325c4feef20c058930710006f00c063832784fe9387
            270003c7070093078005631ef706832784fe9387570003c7070093078005
            6314f706832784fe9387870003c7070093078005631af704032804feb707
            0100938707801307000f9306000f13060000930500000325c4feef204052
            032804feb7070100938707801307000f93060000130600009305000f0325
            c4feef200050930710006f00005b832784fe03c7070093078005631ef706
            832784fe9387170003c70700930780056314f706832784fe9387270003c7
            070093078005631af704032804feb7070100938707801307000f9306000f
            13060000930500000325c4feef20c049032804feb7070100938707801307
            000f93060000130600009305000f0325c4feef208047930710006f008052
            832784fe9387370003c7070093078005631ef706832784fe9387470003c7
            0700930780056314f706832784fe9387570003c7070093078005631af704
            032804feb7070100938707801307000f9306000f13060000930500000325
            c4feef200041032804feb7070100938707801307000f9306000013060000
            9305000f0325c4feef20c03e930710006f00c049832784fe9387670003c7
            070093078005631ef706832784fe9387770003c70700930780056314f706
            832784fe9387870003c7070093078005631af704032804feb70701009387
            07801307000f9306000f13060000930500000325c4feef204038032804fe
            b7070100938707801307000f93060000130600009305000f0325c4feef20
            0036930710006f000041832784fe03c7070093078005631ef706832784fe
            9387470003c70700930780056314f706832784fe9387870003c707009307
            8005631af704032804feb7070100938707801307000f9306000f13060000
            930500000325c4feef20c02f032804feb7070100938707801307000f9306
            0000130600009305000f0325c4feef20802d930710006f008038832784fe
            9387270003c7070093078005631ef706832784fe9387470003c707009307
            80056314f706832784fe9387670003c7070093078005631af704032804fe
            b7070100938707801307000f9306000f13060000930500000325c4feef20
            0027032804feb7070100938707801307000f93060000130600009305000f
            0325c4feef20c024930710006f00c02f832784fe03c707009307f0046318
            f704832784fe9387370003c707009307f004631ef702832784fe93876700
            03c707009307f0046314f702832704fe1307f00193064006130680079305
            80070325c4feef105059930710006f00002a832784fe9387170003c70700
            9307f0046318f704832784fe9387470003c707009307f004631ef7028327
            84fe9387770003c707009307f0046314f702832704fe1307f00193064006
            13068007930580070325c4feef105053930710006f000024832784fe9387
            270003c707009307f0046318f704832784fe9387570003c707009307f004
            631ef702832784fe9387870003c707009307f0046314f702832704fe1307
            f0019306400613068007930580070325c4feef10504d930710006f00001e
            832784fe03c707009307f0046318f704832784fe9387170003c707009307
            f004631ef702832784fe9387270003c707009307f0046314f702832704fe
            1307f0019306400613068007930580070325c4feef109047930710006f00
            4018832784fe9387370003c707009307f0046318f704832784fe93874700
            03c707009307f004631ef702832784fe9387570003c707009307f0046314
            f702832704fe1307f0019306400613068007930580070325c4feef109041
            930710006f004012832784fe9387670003c707009307f0046318f7048327
            84fe9387770003c707009307f004631ef702832784fe9387870003c70700
            9307f0046314f702832704fe1307f0019306400613068007930580070325
            c4feef10903b930710006f00400c832784fe03c707009307f0046318f704
            832784fe9387470003c707009307f004631ef702832784fe9387870003c7
            07009307f0046314f702832704fe1307f001930640061306800793058007
            0325c4feef10d035930710006f008006832784fe9387270003c707009307
            f0046318f704832784fe9387470003c707009307f004631ef702832784fe
            9387670003c707009307f0046314f702832704fe1307f001930640061306
            8007930580070325c4feef10d02f930710006f0080009307000013850700
            8320c101032481011301010267800000130101fe232e8100130401022326
            a4fe93870500a305f4fe8327c4fe03c7070093078005631af7028327c4fe
            9387370003c70700930780056310f7028327c4fe9387670003c707009307
            80056316f700930710006f00003f8327c4fe9387170003c7070093078005
            631af7028327c4fe9387470003c70700930780056310f7028327c4fe9387
            770003c70700930780056316f700930710006f00c03a8327c4fe93872700
            03c7070093078005631af7028327c4fe9387570003c70700930780056310
            f7028327c4fe9387870003c70700930780056316f700930710006f008036
            8327c4fe03c7070093078005631af7028327c4fe9387170003c707009307
            80056310f7028327c4fe9387270003c70700930780056316f70093071000
            6f0080328327c4fe9387370003c7070093078005631af7028327c4fe9387
            470003c70700930780056310f7028327c4fe9387570003c7070093078005
            6316f700930710006f00402e8327c4fe9387670003c7070093078005631a
            f7028327c4fe9387770003c70700930780056310f7028327c4fe93878700
            03c70700930780056316f700930710006f00002a8327c4fe03c707009307
            8005631af7028327c4fe9387470003c70700930780056310f7028327c4fe
            9387870003c70700930780056316f700930710006f0000268327c4fe9387
            270003c7070093078005631af7028327c4fe9387470003c7070093078005
            6310f7028327c4fe9387670003c70700930780056316f700930710006f00
            c0218327c4fe03c707009307f004631af7028327c4fe9387370003c70700
            9307f0046310f7028327c4fe9387670003c707009307f0046316f7009307
            10006f00c01d8327c4fe9387170003c707009307f004631af7028327c4fe
            9387470003c707009307f0046310f7028327c4fe9387770003c707009307
            f0046316f700930710006f0080198327c4fe9387270003c707009307f004
            631af7028327c4fe9387570003c707009307f0046310f7028327c4fe9387
            870003c707009307f0046316f700930710006f0040158327c4fe03c70700
            9307f004631af7028327c4fe9387170003c707009307f0046310f7028327
            c4fe9387270003c707009307f0046316f700930710006f0040118327c4fe
            9387370003c707009307f004631af7028327c4fe9387470003c707009307
            f0046310f7028327c4fe9387570003c707009307f0046316f70093071000
            6f00000d8327c4fe9387670003c707009307f004631af7028327c4fe9387
            770003c707009307f0046310f7028327c4fe9387870003c707009307f004
            6316f700930710006f00c0088327c4fe03c707009307f004631af7028327
            c4fe9387470003c707009307f0046310f7028327c4fe9387870003c70700
            9307f0046316f700930710006f00c0048327c4fe9387270003c707009307
            f004631af7028327c4fe9387470003c707009307f0046310f7028327c4fe
            9387670003c707009307f0046316f700930710006f008000930700001385
            07000324c1011301010267800000130101fd232611022324810213040103
            232ea4fc232cb4fcb70701001386f7ff832584fd0325c4fdef00d07c2313
            04fe6f000002835764fe9397070193d70701938717009397070193d70701
            2313f4fe835764fe13970701135707019307e00fe3fae7fc832784fd1307
            00009306001413060000930580070325c4fdef10401eb707010013880780
            832784fd13078002930680021306c0089305000a0325c4fdef00905bb707
            010013880780832784fd13078002930680021306e0069305c0030325c4fd
            ef005059b707010013880780832784fd13078002930680021306a00a9305
            c0030325c4fdef001057a30704fe6f00c00d13060004832584fd0325c4fd
            ef00002f930705009397870193d7874163de070a130794fe9306a4fe9307
            c4fe13860700832584fd0325c4fdef00c0460355c4fe1307000f93060000
            b7170000138687ed93056009eff00f9f930705009397070193d707012316
            f4fe0355a4fe1307001493060000b7170000138607fa93052008eff04f9c
            930705009397070193d707012315f4fe0357c4fe9307700763eee7009307
            1000a307f4fe832584fd0325c4fdefe08fac6f0040020357c4fe93078007
            63fce70093071000a307f4fe832584fd0325c4fdefc09ffb8347f4fee382
            07f2130000008320c102032481021301010367800000130101fd23261102
            2324810213040103232ea4fc232cb4fc9306200013063000832584fd0325
            c4fdef008028232404fe6f000001832784fe938717002324f4fe032784fe
            b71700009387e7ffe3f4e7fea30704fe6f0040028347f4fe138607008325
            84fd0325c4fdef00001a8347f4fe93871700a307f4fe0347f4fe93070004
            e3fce7fc9306000013064000832584fd0325c4fdef00c021930610001306
            0004832584fd0325c4fdef00802013060004832584fd0325c4fdef000015
            930610001306a000832584fd0325c4fdef00401e93060006130600028325
            84fd0325c4fdef00001d9306200013061002832584fd0325c4fdef00c01b
            9306400a13061004832584fd0325c4fdef00801a93066000130660058325
            84fd0325c4fdef004019930610001306a004832584fd0325c4fdef000018
            930610001306b004832584fd0325c4fdef00c016930600001306b0048325
            84fd0325c4fdef0080159306000013068005832584fd0325c4fdef004014
            9306f00f1306b000832584fd0325c4fdef00001393065000130690008325
            84fd0325c4fdef00c011130000008320c102032481021301010367800000
            130101fe232e1100232c8100130401022326a4fe938705002322c4fea305
            f4fe930510000325c4feefa08fef8347b4fe938507000325c4feefa0df8a
            930510000325c4feefa0cffb130000008320c10103248101130101026780
            0000130101fd232611022324810213040103232ea4fc232cb4fc93070600
            a30bf4fca30704fe1306000093055000032584fdefc08fec930510000325
            c4fdefa08fe8834774fd93e707f893f7f70f938507000325c4fdefa05f83
            93070500a307f4fe930500000325c4fdefa01f8293070500a307f4fe9305
            10000325c4fdefa08ff21306100093055000032584fdefc0cfe68347f4fe
            138507008320c102032481021301010367800000130101fe232e1100232c
            8100130401022326a4fe2324b4fe1307060093870600a303e4fe2303f4fe
            1306000093055000032584feefc0cfe1834774fe032684fe938507000325
            c4feeff05feb834764fe032684fe938507000325c4feeff01fea13061000
            93055000032584feefc04fde130000008320c10103248101130101026780
            0000130101fd232611022324810213040103232ea4fc232cb4fc13060000
            832584fd0325c4fdeff01feb930705002317f4fe8357e4fe939787002317
            f4fe13061000832584fd0325c4fdeff0dfe8930705001397070113570701
            8357e4feb367f7002317f4fe8357e4fe138507008320c102032481021301
            010367800000130101fc232e1102232c8102232a910213040104232ea4fc
            232cb4fc232ac4fc2328d4fc2326e4fca30704fe6f0080038344f4fe1306
            700d832584fd0325c4fdeff09fe19307050013870700930704ffb3879700
            238ce7fe8347f4fe93871700a307f4fe0347f4fe93073000e3f2e7fc8347
            84fe1397070113570701832744fd2390e700832744fd83d7070093974700
            1397070113570701832744fd2390e700832744fd03d70700834794fe93d7
            470093f7f70f9397070193d70701b367f7001397070113570701832744fd
            2390e700834794fe9397070193d7070193f7f70013970701135707018327
            04fd2390e700832704fd83d70700939787001397070113570701832704fd
            2390e700832704fd03d707008347a4fe9397070193d70701b367f7001397
            070113570701832704fd2390e7000347b4fe8327c4fc2380e7001306b004
            832584fd0325c4fdeff0dfd09307050093f70702638c07009306f00f1306
            b000832584fd0325c4fdeff05fd9130000008320c1030324810383244103
            1301010467800000130101fe232e1100232c8100130401022326a4fe2324
            b4fe13060004832584fe0325c4feeff0dfca9307050093f7070813850700
            8320c101032481011301010267800000130101fe232e1100232c81001304
            01022326a4fe93870500a305f4fe930500000325c4feefa0cfb28347b4fe
            938507000325c4feefa00fce930500000325c4feefa00fbf130000008320
            c101032481011301010267800000130101fd232611022324810213040103
            232ea4fc232cb4fc1306000093056000032584fdefc08fb0231704fe6f00
            00028357e4fe9397070193d70701938717009397070193d707012317f4fe
            8357e4fe1397070113570701b71700009387e7ffe3f8e7fc130610009305
            6000032584fdefc0cfab231604fe6f0000028357c4fe9397070193d70701
            938717009397070193d707012316f4fe8357c4fe1397070113570701b717
            00009387e7ffe3f8e7fc032684fd9305f00e0325c4fdef00407d032684fd
            930530000325c4fdef009002032684fd930500080325c4fdef0090010326
            84fd930520000325c4fdef009000032684fd9305f00c0325c4fdef004079
            032684fd930500000325c4fdef00807e032684fd9305100c0325c4fdef00
            807d032684fd930500030325c4fdef00807c032684fd9305d00e0325c4fd
            ef004075032684fd930540060325c4fdef00807a032684fd930530000325
            c4fdef008079032684fd930520010325c4fdef008078032684fd93051008
            0325c4fdef008077032684fd9305800e0325c4fdef004070032684fd9305
            50080325c4fdef008075032684fd930500000325c4fdef008074032684fd
            930580070325c4fdef008073032684fd9305b00c0325c4fdef00406c0326
            84fd930590030325c4fdef008071032684fd9305c0020325c4fdef008070
            032684fd930500000325c4fdef00806f032684fd930540030325c4fdef00
            806e032684fd930520000325c4fdef00806d032684fd9305700f0325c4fd
            ef004066032684fd930500020325c4fdef00806b032684fd9305a00e0325
            c4fdef004064032684fd930500000325c4fdef008069032684fd93050000
            0325c4fdef008068032684fd9305000c0325c4fdef004061032684fd9305
            30020325c4fdef008066032684fd9305100c0325c4fdef00405f032684fd
            930500010325c4fdef008064032684fd9305500c0325c4fdef00405d0326
            84fd9305e0030325c4fdef008062032684fd930580020325c4fdef008061
            032684fd9305700c0325c4fdef00405a032684fd930560080325c4fdef00
            805f032684fd930560030325c4fdef004058032684fd930580040325c4fd
            ef00805d032684fd9305a0030325c4fdef004056032684fd930550050325
            c4fdef00805b032684fd9305100b0325c4fdef004054032684fd93050000
            0325c4fdef008059032684fd930580010325c4fdef008058032684fd9305
            600b0325c4fdef004051032684fd930580000325c4fdef008056032684fd
            930520080325c4fdef008055032684fd930570020325c4fdef0080540326
            84fd9305200f0325c4fdef00404d032684fd930500000325c4fdef008052
            032684fd930560020325c4fdef00404b032684fd930510000325c4fdef00
            8050032684fd9305000e0325c4fdef004049032684fd9305f0000325c4fd
            ef00804e032684fd930510030325c4fdef00804d032684fd9305b0020325
            c4fdef00804c032684fd9305c0000325c4fdef00804b032684fd9305e000
            0325c4fdef00804a032684fd930580000325c4fdef008049032684fd9305
            e0040325c4fdef008048032684fd9305100f0325c4fdef008047032684fd
            930570030325c4fdef008046032684fd930570000325c4fdef0080450326
            84fd930500010325c4fdef008044032684fd930530000325c4fdef008043
            032684fd9305e0000325c4fdef008042032684fd930590000325c4fdef00
            8041032684fd930500000325c4fdef008040032684fd9305100e0325c4fd
            ef004039032684fd930500000325c4fdef00803e032684fd9305e0000325
            c4fdef00803d032684fd930540010325c4fdef00803c032684fd93053000
            0325c4fdef00803b032684fd930510010325c4fdef00803a032684fd9305
            70000325c4fdef008039032684fd930510030325c4fdef008038032684fd
            9305100c0325c4fdef008037032684fd930580040325c4fdef0080360326
            84fd930580000325c4fdef008035032684fd9305f0000325c4fdef008034
            032684fd9305c0000325c4fdef008033032684fd930510030325c4fdef00
            8032032684fd930560030325c4fdef008031032684fd9305f0000325c4fd
            ef008030032684fd930510010325c4fdef004029231504fe6f0000028357
            a4fe9397070193d70701938717009397070193d707012315f4fe8357a4fe
            1397070113570701b71700009387e7ffe3f8e7fc032684fd930590020325
            c4fdef008024231404fe6f000002835784fe9397070193d7070193871700
            9397070193d707012314f4fe835784fe1397070113570701b71700009387
            e7ffe3f8e7fc130000008320c102032481021301010367800000130101fc
            232e1102232c810213040104232ea4fc2328f4fc93070800231db4fc231c
            c4fc231bd4fc231ae4fc2317f4fc0317a4fd9307f00e63dee7008357a4fd
            1307000fb307f7409397070193d70701231bf4fc0317a4fd9307f01363de
            e700835784fd13070014b307f7409397070193d70701231af4fc8355a4fd
            035684fd0357a4fd835764fdb307f7009397070193d707019387f7ff9396
            070193d60601035784fd835744fdb307f7009397070193d707019387f7ff
            1397070113570701832704fd0325c4fdef00401e8357e4fc93d787009397
            070193d70701a307f4fe8357e4fc2307f4fe1306100093054000032504fd
            efb0dfb9835744fd231cf4fc6f000007835764fd231df4fc6f0000048347
            f4fe938507000325c4fdeff00fff8347e4fe938507000325c4fdeff00ffe
            8317a4fd9397070193d707019387f7ff9397070193d70701231df4fc8317
            a4fde340f0fc831784fd9397070193d707019387f7ff9397070193d70701
            231cf4fc831784fde348f0f81306100093055000032504fdefb0dfb01300
            00008320c103032481031301010467800000130101fe232e1100232c8100
            130401022326a4fe2324b4fe930706002313f4fe835764fe138807008327
            84fe130700149306000f13060000930500000325c4feeff05fe213000000
            8320c101032481011301010267800000130101fe232e1100232c81001304
            01022326a4fe938705002322c4fea305f4fe1306000093054000032544fe
            efb01fa78347b4fe938507000325c4feeff0cfed13061000930540000325
            44feefb01fa5130000008320c101032481011301010267800000130101fe
            232e1100232c8100130401022326a4fe938705002322c4fea305f4fe1306
            100093054000032544feefb0dfa08347b4fe938507000325c4feeff08fe7
            130000008320c101032481011301010267800000130101fe232e1100232c
            8100130401022326a4fe2320f4fe2315b4fe2314c4fe2313d4fe2312e4fe
            032604fe9305a0020325c4feeff05ff18357a4fe93d787009397070193d7
            070193f7f70f032604fe938507000325c4feeff05ff58357a4fe93f7f70f
            032604fe938507000325c4feeff0dff3835764fe93d787009397070193d7
            070193f7f70f032604fe938507000325c4feeff09ff1835764fe93f7f70f
            032604fe938507000325c4feeff01ff0032604fe9305b0020325c4feeff0
            dfe8835784fe93d787009397070193d7070193f7f70f032604fe93850700
            0325c4feeff0dfec835784fe93f7f70f032604fe938507000325c4feeff0
            5feb835744fe93d787009397070193d7070193f7f70f032604fe93850700
            0325c4feeff01fe9835744fe93f7f70f032604fe938507000325c4feeff0
            9fe7032604fe9305c0020325c4feeff05fe0130000008320c10103248101
            1301010267800000130101fd232611022324810213040103232ea4fc2328
            f4fc231db4fc231cc4fc231bd4fc231ae4fc0317a4fd9307f00e63c6e70e
            031784fd9307f01363c0e70e031784fd831764fdb307f7001387f7ff9307
            f01363dee700835784fd13070014b307f7409397070193d70701231bf4fc
            8355a4fd035684fd8356a4fd035784fd835764fdb307f7009397070193d7
            07019387f7ff1397070113570701832704fd0325c4fdeff01fe0831744fd
            93d787409397070193d70741a307f4fe835744fd2307f4fe130610009305
            4000032504fdefb08ffb6f0040028347f4fe938507000325c4fdeff00fc2
            8347e4fe938507000325c4fdeff00fc1831764fd13970701135707011307
            f7ff1317070113570701231be4fce39207fc6f008000130000008320c102
            032481021301010367800000130101fd232611022324810213040103232e
            a4fc2328f4fc231db4fc231cc4fc231bd4fc231ae4fc0317a4fd9307f00e
            63c6e70e031784fd9307f01363c0e70e0317a4fd831764fdb307f7001387
            f7ff9307f00e63dee7008357a4fd1307000fb307f7409397070193d70701
            231bf4fc8355a4fd035684fd0357a4fd835764fdb307f7009397070193d7
            07019387f7ff9396070193d60601035784fd832704fd0325c4fdeff01fcd
            831744fd93d787409397070193d70741a307f4fe835744fd2307f4fe1306
            100093054000032504fdefb08fe86f0040028347f4fe938507000325c4fd
            eff00faf8347e4fe938507000325c4fdeff00fae831764fd139707011357
            07011307f7ff1317070113570701231be4fce39207fc6f00800013000000
            8320c102032481021301010367800000130101fd23261102232481021304
            0103232ea4fc232cb4fc930500000325c4fdef904fdd1306000093054000
            032584fdefb08fdf9305a0000325c4fdef90cff713061000930540000325
            84fdefb0cfdd930500000325c4fdef900ff62326a4fe930500000325c4fd
            ef900ff52326a4fe930500000325c4fdef900ff42326a4fe930500000325
            c4fdef900ff32326a4fe930500000325c4fdef900ff22326a4fe93050000
            0325c4fdef900ff12326a4fe930500000325c4fdef90cfe18327c4fe1385
            07008320c102032481021301010367800000130101fd2326110223248102
            13040103232ea4fc938706002328e4fc231db4fc231cc4fc231bf4fc8317
            a4fd63c8070a0317a4fd9307f00e63c2e70a831784fd63ce0708031784fd
            9307f01363c8e708a30704fe835764fd93d787009397070193d70701a307
            f4fe230704fe835764fd2307f4fe8355a4fd035684fd8357a4fd93871700
            9396070193d60601835784fd938717001397070113570701832704fd0325
            c4fdeff0dfac1306100093054000032504fdefb00fca8347f4fe93850700
            0325c4fdeff0cf908347e4fe938507000325c4fdeff0cf8f6f0080001300
            00008320c102032481021301010367800000130101fd2326110223248102
            13040103232ea4fc2328f4fc231db4fc231cc4fc231bd4fc231ae4fc8357
            64fd13071000b307f7409397070193d707012317f4fe930710002316f4fe
            835764fd13070000b307f740939717009397070193d707012315f4fe2314
            04fe835764fd2313f4fe035784fd835764fdb307f7009397070193d70701
            1396070113560641835644fd8317a4fd032704fd938507000325c4fdeff0
            1fe7035784fd835764fdb307f7409397070193d707011396070113560641
            835644fd8317a4fd032704fd938507000325c4fdeff0dfe30357a4fd8357
            64fdb307f7009397070193d707019397070193d70741835644fd031684fd
            032704fd938507000325c4fdeff09fe00357a4fd835764fdb307f7409397
            070193d707019397070193d70741835644fd031684fd032704fd93850700
            0325c4fdeff05fdd6f00c02f8317e4fe63c60704831764fe9397070193d7
            07019387f7ff9397070193d707012313f4fe8357a4fe9387270093970701
            93d707012315f4fe0357e4fe8357a4feb307f7009397070193d707012317
            f4fe831784fe9397070193d70701938717009397070193d707012314f4fe
            8357c4fe938727009397070193d707012316f4fe0357e4fe8357c4feb307
            f7009397070193d707012317f4fe0357a4fd835784feb307f70093970701
            93d707019395070193d50541035784fd835764feb307f7009397070193d7
            07019397070193d70741835644fd032704fd138607000325c4fdeff0dfce
            0357a4fd835784feb307f7409397070193d707019395070193d505410357
            84fd835764feb307f7009397070193d707019397070193d70741835644fd
            032704fd138607000325c4fdeff01fca0357a4fd835784feb307f7009397
            070193d707019395070193d50541035784fd835764feb307f74093970701
            93d707019397070193d70741835644fd032704fd138607000325c4fdeff0
            5fc50357a4fd835784feb307f7409397070193d707019395070193d50541
            035784fd835764feb307f7409397070193d707019397070193d707418356
            44fd032704fd138607000325c4fdeff09fc00357a4fd835764feb307f700
            9397070193d707019395070193d50541035784fd835784feb307f7009397
            070193d707019397070193d70741835644fd032704fd138607000325c4fd
            eff0dfbb0357a4fd835764feb307f7409397070193d707019395070193d5
            0541035784fd835784feb307f7009397070193d707019397070193d70741
            835644fd032704fd138607000325c4fdeff01fb70357a4fd835764feb307
            f7009397070193d707019395070193d50541035784fd835784feb307f740
            9397070193d707019397070193d70741835644fd032704fd138607000325
            c4fdeff05fb20357a4fd835764feb307f7409397070193d7070193950701
            93d50541035784fd835784feb307f7409397070193d707019397070193d7
            0741835644fd032704fd138607000325c4fdeff09fad031784fe831764fe
            e340f7d0130000008320c102032481021301010367800000130101fb2326
            110423248104130401052326a4fc232e04fb2315b4fc2314c4fc2313d4fc
            2312e4fc2311f4fc031744fc831784fc3307f7409357f74133c7e7003307
            f740831664fc8317a4fcb387f64093d6f741b3c7f600b387d740b3a7e700
            93f7f70f2315f4fe8317a4fe638a07028357a4fc2314f4fe835784fc2315
            f4fc835784fe2314f4fc835764fc2313f4fe835744fc2313f4fc835764fe
            2312f4fc0317a4fc831764fc63dae7028357a4fc2312f4fe835764fc2315
            f4fc835744fe2313f4fc835784fc2311f4fe835744fc2314f4fc835724fe
            2312f4fc035764fc8357a4fcb307f7409397070193d707012310f4fe0317
            44fc831784fcb307f74013d7f741b347f700b387e740231ff4fc831704fe
            13d7f701b307f70093d717402317f4fe031784fc831744fc6358f7009307
            10002316f4fe6f00000c9307f0ff2316f4fe6f00400b8317a4fe63820702
            835624fc0316a4fc831784fc0327c4fb938507000325c4fceff0df946f00
            0002835624fc031684fc8317a4fc0327c4fb938507000325c4fceff0df92
            0357e4fe8357e4fdb307f7409397070193d707012317f4fe8317e4fe63da
            0702035784fc8357c4feb307f7009397070193d707012314f4fc0357e4fe
            835704feb307f7009397070193d707012317f4fe8317a4fc9397070193d7
            0701938717009397070193d707012315f4fc0317a4fc831764fce3d4e7f4
            130000008320c104032481041301010567800000130101fe232e1100232c
            81001304010223ae01d413062000b7550070138581d0efa08ffb93050000
            138581d0efa09f981306000093050000138581d0efa05fdb130600009305
            1000138581d0efa05fda1306500093054000138581d0efa01f8f13061000
            93054000138581d0efa05fd81306500093056000138581d0efa01f8d1306
            100093056000138581d0efa05fd61306500093055000138581d0efa01f8b
            1306100093055000138581d0efa05fd413068000b7650070138501d1ef80
            1fa3138501d1ef809fc4938581d0138501d1efe05f9f231704fe6f000002
            8357e4fe9397070193d70701938717009397070193d707012317f4fe8357
            e4fe13970701135707019307e00fe3fae7fc938581d0138501d1efe0cfbd
            231604fe6f0000028357c4fe9397070193d70701938717009397070193d7
            07012316f4fe8357c4fe13970701135707019307e00fe3fae7fc938581d0
            138501d1efc0cfe16f00000068656c6c6f000000747261700a0000003078
            00000a50726f67616d2068617320657869746564207769746820636f6465
            3a0000000d00000043000000c07af2045004008064050080200000802000
            0080000000000000000000000000000000000c03008074030080dc030080
            000000000000000000000000000000000000000000000000000000000000
            0000000000000c9200600000000000000000000000000000000000000000
            000000000000000000000000000000000000000000000000000000000000
            000000000000000000000000000000000000000000000000000000000000
            000000000000000000000000000000000000000000000000000000000000
            000001000000000000000e33cdab34126de6ecde05000b00000000000000
            000000000000000000000000000000000000000000000000000000000000
            000000000000000000000000000000000000000000000000000000000000
            000000000000000000000000000000000000000000000000000000000000
            000000000000000000000000000000000000000000000000000000000000
            000000000000000000000000000000000000000000000000000000000000
            000000000000000000000000000000000000000000000000000000000000
            000000000000000000000000000000000000000000000000000000000000
            000000000000000000000000000000000000000000000000000000000000
            000000000000000000000000000000000000000000000000000000000000
            000000000000000000000000000000000000000000000000000000000000
            000000000000000000000000000000000000000000000000000000000000
            000000000000000000000000000000000000000000000000000000000000
            000000000000000000000000000000000000000000000000000000000000
            000000000000000000000000000000000000000000000000000000000000
            000000000000000000000000000000000000000000000000000000000000
            000000000000000000000000000000000000000000000000000000000000
            000000000000000000000000000000000000000000000000000000000000
            000000000000000000000000000000000000000000000000000000000000
            000000000000000000000000000000000000000000000000000000000000
            000000000000000000000000000000000000000000000000000000000000
            000000000000000000000000000000000000000000000000000000000000
            000000000000000000000000000000000000000000000000000000000000
            000000000000000000000000000000000000000000000000000000000000
            000000000000000000000000000000000000000000000000000000000000
            000000000000000000000000000000000000000000000000000000000000
            000000000000000000000000000000000000000000000000000000000000
            000000000000000000000000000000000000000000000000000000000000
            000000000000000000000000000000000000000000000000000000000000
            00000000000000000000000000000000000000000000000000000000
            <crc>
                b532
            </crc>
        </region>
        <region name="ACTEL_INIT_CONFIG_ENVM" address="0x07d000" retrieveAddressFromFile="false" size="688" format="HEX" type="Data Storage" wordSize="32" numberWords="172" memFile="C:\Users\ciaran.lappin\Downloads\CreativeRes\M2GL025-Creative-Board-master\Modify_The_FPGA_Design\IGL2_CoreRISCV_AXI4_TickTacToe\designer\PROC_SUBSYSTEM\PROC_SUBSYSTEM.efc.init.mem" memType="BINARY" memFileTimeStamp="1509618974" clientType="private" program="true">
            040024000008024000000000240024000808024008110000900200000200
            000000000000010000009f0900000000000033330000ffff000004002400
            7808024000330000b00024002c08024077770000ff0f0000010000000042
            000008000000520900004400000000000000000000008002000065000000
            e501000002000000280000007801000023000000330d0000040000000000
            00000033000000000000000000000c040000000000000000000000000000
            020000000000000080200000f880000007000000f8800000070000000002
            000000000000010000000400000003000000400000000000000000000000
            00000000000000000903000004002400e008024000000000040024004009
            02400000000020012400000a024000000000000000000000000000000000
            000000000000000000000000000000000000000080000000000000000000
            00000300000000000000000000000000000000000000000000000b000000
            000000000000000000000000000000008000000004200000000100000800
            000000000000000000000000000000000000000000000100000000000000
            000000000000000000000000000000005040000001050000145000000000
            000008000000180000000000000005000000000000000000000000000000
            000000000000000000000000000000000000000050000000010500001050
            000000000000000000000000000000000000000000000000000043000000
            000000000300000001000000010000000000000000000000000000000100
            000020002400000c02400000000000000000000000000000000000000000
            0000000000000000000000000c002400400c024000000000000000000000
            000004002400dc0802400100000000000002e40802400800000008000000
            04002400002002400100000004002480002002400300000000000000
            <crc>
                cbff
            </crc>
        </region>
    </nvm>
</Actel_Data_File>
